-8
-9
-9
-10
-10
-8
-7
-7
-8
-9
-10
-11
-12
-12
-11
-10
-10
-11
-10
-10
-10
-9
-8
-7
-6
-2
0
0
-1
-2
-3
-2
-2
-2
-2
-3
-5
-7
-8
-7
-8
-8
-9
-8
-9
-9
-9
-9
-11
-13
-14
-16
-18
-19
-19
-20
-21
-20
-20
-19
-17
-13
-9
-9
-12
-17
-22
-26
-27
-24
-19
-14
-13
-19
-32
-44
-50
-46
-33
-19
-6
-2
-6
-12
-19
-30
-42
-55
-64
-68
-66
-61
-56
-48
-39
-32
-27
-24
-21
-20
-19
-19
-18
-17
-18
-18
-17
-17
-18
-18
-18
-18
-18
-18
-18
-19
-19
-20
-21
-21
-21
-20
-21
-20
-19
-18
-17
-17
-19
-20
-19
-19
-19
-19
-20
-20
-20
-20
-20
-20
-21
-21
-20
-19
-20
-21
-21
-21
-21
-20
-19
-19
-21
-22
-23
-23
-24
-25
-24
-24
-25
-25
-24
-24
-25
-26
-25
-25
-25
-25
-25
-26
-26
-24
-24
-24
-24
-24
-22
-21
-20
-19
-19
-19
-19
-19
-19
-19
-19
-20
-21
-22
-23
-24
-24
-25
-24
-25
-26
-27
-28
-27
-28
-29
-31
-32
-34
-36
-38
-39
-37
-38
-37
-37
-35
-33
-32
-31
-32
-35
-38
-40
-42
-42
-39
-34
-33
-40
-55
-71
-77
-73
-59
-40
-25
-20
-24
-31
-38
-49
-62
-75
-84
-91
-91
-90
-85
-78
-68
-57
-48
-42
-39
-36
-36
-35
-35
-34
-33
-32
-32
-33
-33
-34
-34
-33
-32
-32
-33
-33
-34
-33
-35
-35
-35
-36
-36
-35
-34
-35
-35
-36
-35
-34
-33
-32
-32
-33
-34
-34
-34
-35
-36
-36
-35
-34
-33
-32
-32
-34
-35
-35
-36
-37
-37
-36
-36
-37
-38
-38
-38
-39
-39
-38
-37
-37
-38
-40
-40
-41
-40
-39
-38
-38
-39
-39
-39
-39
-39
-37
-35
-35
-35
-32
-29
-28
-27
-27
-27
-27
-29
-30
-30
-31
-30
-30
-31
-32
-33
-32
-34
-35
-36
-35
-35
-35
-36
-37
-37
-40
-44
-46
-46
-47
-46
-45
-45
-44
-43
-40
-38
-37
-39
-42
-48
-54
-58
-57
-52
-47
-45
-50
-63
-79
-89
-86
-74
-54
-36
-27
-28
-36
-47
-61
-76
-92
-100
-102
-100
-96
-88
-77
-69
-61
-54
-48
-46
-45
-43
-42
-41
-43
-43
-43
-42
-42
-41
-40
-40
-41
-42
-41
-42
-41
-40
-39
-39
-40
-41
-42
-42
-41
-40
-40
-41
-41
-41
-40
-41
-40
-40
-41
-41
-42
-42
-41
-40
-40
-39
-38
-39
-39
-40
-40
-41
-40
-39
-37
-37
-39
-39
-41
-42
-42
-41
-40
-40
-40
-40
-39
-40
-40
-40
-40
-41
-42
-41
-41
-40
-39
-37
-36
-36
-35
-35
-35
-35
-32
-29
-25
-23
-24
-24
-25
-26
-27
-27
-27
-27
-28
-29
-30
-32
-33
-33
-33
-33
-34
-35
-36
-37
-39
-39
-40
-41
-42
-42
-43
-44
-45
-45
-43
-42
-41
-38
-34
-31
-31
-32
-34
-38
-42
-42
-40
-35
-31
-32
-38
-52
-66
-74
-73
-60
-42
-28
-23
-25
-33
-42
-57
-74
-88
-101
-103
-100
-92
-82
-72
-62
-55
-49
-43
-37
-36
-37
-38
-37
-36
-35
-33
-32
-31
-32
-33
-33
-34
-33
-33
-31
-30
-30
-30
-31
-32
-32
-32
-31
-30
-30
-30
-29
-28
-29
-29
-29
-28
-28
-28
-27
-27
-28
-28
-28
-28
-29
-28
-28
-27
-27
-26
-25
-25
-25
-25
-24
-25
-26
-25
-24
-23
-25
-26
-26
-27
-27
-26
-25
-24
-24
-25
-25
-26
-27
-26
-25
-24
-24
-22
-20
-20
-20
-21
-20
-20
-18
-16
-12
-11
-12
-15
-15
-14
-14
-13
-12
-13
-13
-14
-14
-16
-18
-19
-20
-21
-21
-20
-18
-19
-21
-24
-27
-29
-30
-30
-30
-30
-29
-29
-29
-29
-29
-25
-20
-18
-20
-23
-28
-33
-37
-36
-31
-24
-20
-22
-33
-49
-60
-63
-54
-38
-20
-9
-8
-13
-23
-35
-54
-72
-86
-95
-93
-88
-77
-65
-54
-45
-39
-32
-29
-26
-25
-24
-23
-22
-22
-22
-23
-23
-22
-22
-21
-21
-22
-22
-22
-23
-25
-24
-24
-24
-23
-22
-22
-23
-23
-23
-23
-24
-23
-23
-21
-21
-21
-20
-21
-21
-22
-22
-21
-21
-20
-19
-18
-18
-18
-19
-19
-20
-20
-18
-17
-16
-18
-19
-20
-21
-20
-19
-18
-19
-19
-19
-19
-20
-22
-21
-20
-20
-21
-20
-19
-19
-21
-21
-20
-20
-19
-19
-18
-18
-18
-18
-17
-16
-15
-13
-12
-12
-12
-12
-13
-15
-16
-17
-17
-17
-17
-19
-19
-20
-22
-23
-23
-22
-23
-23
-23
-25
-27
-30
-31
-34
-35
-34
-32
-31
-33
-34
-34
-33
-30
-25
-22
-25
-31
-38
-43
-44
-41
-33
-26
-25
-35
-51
-67
-73
-65
-49
-28
-15
-14
-19
-26
-37
-52
-69
-86
-95
-97
-91
-84
-75
-66
-56
-46
-40
-36
-34
-31
-30
-30
-28
-27
-28
-29
-29
-28
-28
-29
-29
-30
-31
-32
-31
-30
-31
-32
-32
-31
-33
-34
-34
-33
-33
-33
-31
-32
-31
-31
-31
-31
-33
-33
-33
-32
-32
-32
-31
-32
-32
-33
-33
-33
-32
-30
-29
-28
-29
-30
-33
-33
-33
-33
-32
-32
-32
-33
-33
-35
-36
-36
-36
-34
-33
-32
-32
-33
-34
-34
-34
-33
-34
-36
-35
-34
-34
-33
-33
-33
-34
-33
-31
-28
-27
-26
-25
-25
-26
-26
-26
-25
-25
-25
-25
-26
-28
-29
-29
-29
-30
-30
-32
-33
-33
-34
-34
-35
-36
-38
-39
-40
-42
-42
-42
-40
-40
-39
-39
-36
-33
-31
-32
-35
-40
-47
-51
-50
-47
-40
-36
-38
-51
-67
-81
-83
-74
-56
-35
-24
-26
-33
-40
-50
-63
-78
-91
-97
-101
-98
-92
-84
-76
-65
-56
-50
-44
-41
-38
-38
-38
-38
-37
-36
-35
-34
-33
-33
-34
-34
-34
-35
-34
-34
-32
-32
-32
-34
-35
-35
-35
-34
-33
-32
-34
-34
-33
-34
-34
-35
-34
-33
-32
-32
-32
-32
-33
-33
-32
-31
-33
-34
-34
-34
-34
-34
-32
-31
-31
-31
-31
-33
-35
-37
-38
-37
-39
-39
-39
-39
-39
-39
-39
-39
-39
-39
-38
-38
-37
-37
-35
-34
-35
-35
-35
-34
-36
-36
-34
-32
-30
-30
-29
-28
-28
-28
-28
-29
-30
-31
-29
-28
-28
-28
-28
-28
-28
-28
-27
-27
-29
-31
-34
-35
-36
-35
-34
-33
-35
-36
-37
-39
-41
-41
-39
-40
-39
-38
-36
-32
-30
-30
-33
-36
-39
-43
-44
-45
-45
-42
-37
-38
-48
-63
-74
-75
-65
-45
-28
-19
-22
-31
-40
-53
-67
-80
-87
-90
-91
-88
-81
-74
-64
-53
-44
-38
-36
-35
-35
-36
-36
-35
-33
-33
-32
-32
-31
-31
-32
-31
-31
-31
-31
-31
-33
-34
-33
-33
-34
-35
-35
-34
-33
-34
-34
-34
-33
-33
-34
-33
-32
-32
-33
-33
-34
-34
-33
-33
-32
-32
-33
-34
-35
-35
-35
-33
-32
-31
-32
-32
-31
-32
-33
-34
-34
-34
-34
-33
-33
-34
-35
-35
-35
-35
-34
-32
-33
-34
-34
-34
-33
-34
-33
-33
-32
-32
-32
-33
-33
-32
-30
-27
-24
-23
-23
-24
-25
-26
-25
-25
-25
-25
-25
-25
-26
-28
-31
-31
-32
-32
-31
-30
-31
-33
-34
-35
-36
-37
-39
-40
-42
-43
-43
-42
-42
-42
-41
-40
-37
-36
-34
-35
-37
-41
-46
-50
-49
-45
-40
-34
-35
-45
-60
-72
-73
-65
-50
-31
-19
-19
-26
-35
-47
-60
-77
-89
-96
-96
-92
-87
-77
-69
-60
-53
-46
-44
-42
-42
-42
-41
-41
-40
-39
-40
-42
-42
-41
-42
-42
-42
-40
-41
-42
-43
-44
-43
-43
-42
-42
-42
-44
-44
-44
-44
-43
-42
-40
-40
-40
-41
-42
-42
-42
-42
-41
-42
-43
-43
-43
-43
-44
-44
-43
-44
-44
-43
-41
-42
-43
-43
-43
-42
-42
-41
-41
-42
-44
-44
-44
-44
-44
-44
-43
-45
-45
-43
-43
-44
-45
-44
-44
-43
-43
-43
-43
-44
-44
-44
-44
-45
-44
-41
-38
-36
-37
-37
-37
-37
-37
-38
-39
-40
-40
-39
-39
-40
-42
-43
-44
-43
-43
-42
-43
-44
-45
-46
-48
-50
-51
-52
-53
-54
-53
-52
-51
-51
-52
-51
-49
-48
-47
-47
-50
-56
-61
-65
-64
-61
-56
-52
-56
-68
-86
-94
-95
-84
-64
-44
-35
-39
-49
-59
-69
-84
-98
-111
-117
-116
-113
-104
-97
-87
-78
-70
-64
-61
-58
-56
-54
-54
-53
-53
-53
-52
-52
-50
-50
-50
-51
-50
-51
-52
-53
-52
-52
-53
-52
-53
-54
-54
-54
-53
-54
-55
-55
-54
-53
-52
-52
-51
-52
-53
-52
-51
-51
-51
-51
-52
-54
-54
-54
-51
-50
-50
-51
-52
-53
-53
-52
-52
-52
-53
-53
-53
-54
-54
-54
-53
-55
-55
-55
-55
-56
-57
-54
-54
-53
-54
-52
-51
-51
-52
-53
-52
-52
-52
-52
-51
-51
-50
-49
-47
-45
-44
-43
-43
-44
-45
-45
-45
-45
-46
-46
-46
-47
-48
-48
-47
-48
-49
-48
-47
-48
-49
-49
-50
-52
-54
-56
-57
-57
-57
-57
-57
-56
-56
-54
-52
-48
-47
-48
-51
-56
-61
-66
-65
-62
-58
-55
-55
-64
-80
-91
-94
-85
-68
-48
-33
-30
-37
-47
-56
-70
-83
-95
-102
-104
-104
-98
-90
-80
-72
-62
-54
-50
-47
-46
-43
-43
-42
-42
-41
-41
-40
-41
-41
-41
-41
-40
-39
-39
-41
-41
-40
-40
-40
-39
-38
-38
-39
-39
-39
-38
-39
-39
-38
-37
-38
-38
-37
-37
-37
-37
-36
-36
-37
-37
-37
-36
-37
-37
-36
-36
-36
-36
-35
-36
-35
-36
-35
-35
-36
-36
-36
-35
-36
-36
-37
-36
-35
-35
-34
-35
-35
-36
-34
-34
-34
-33
-33
-33
-33
-33
-33
-32
-31
-30
-27
-25
-23
-22
-21
-21
-22
-23
-22
-23
-24
-24
-24
-24
-25
-24
-24
-25
-27
-27
-26
-25
-25
-26
-26
-28
-30
-32
-34
-36
-36
-36
-36
-35
-34
-32
-30
-30
-30
-29
-28
-30
-33
-35
-38
-40
-40
-36
-30
-26
-27
-36
-52
-66
-68
-59
-41
-20
-8
-6
-10
-19
-31
-44
-58
-69
-76
-77
-75
-71
-61
-52
-42
-36
-32
-30
-27
-25
-25
-24
-23
-23
-24
-23
-24
-25
-27
-27
-26
-24
-21
-21
-20
-20
-21
-21
-21
-23
-26
-26
-25
-26
-27
-30
-31
-31
-30
-30
-29
-28
-29
-28
-26
-24
-25
-26
-26
-23
-21
-20
-18
-19
-23
-26
-28
-29
-30
-29
-28
-26
-26
-23
-23
-23
-25
-25
-25
-26
-26
-24
-23
-22
-22
-23
-24
-25
-26
-24
-22
-22
-21
-21
-22
-23
-22
-19
-18
-18
-18
-17
-15
-14
-13
-13
-12
-13
-16
-17
-17
-17
-17
-17
-18
-21
-22
-20
-18
-17
-18
-19
-19
-18
-19
-20
-22
-24
-26
-27
-26
-26
-26
-26
-26
-26
-27
-26
-25
-23
-21
-20
-22
-27
-34
-36
-32
-27
-21
-17
-20
-29
-42
-49
-46
-34
-19
-7
-6
-11
-18
-24
-35
-52
-70
-80
-82
-77
-68
-57
-48
-41
-35
-32
-31
-31
-30
-28
-27
-28
-28
-29
-28
-27
-25
-23
-23
-24
-25
-25
-26
-27
-27
-26
-26
-27
-28
-29
-29
-29
-28
-25
-25
-25
-26
-26
-27
-27
-25
-25
-25
-26
-27
-28
-26
-25
-25
-27
-28
-26
-23
-21
-20
-21
-23
-24
-24
-24
-24
-23
-23
-22
-23
-24
-25
-26
-25
-24
-24
-24
-24
-23
-24
-25
-24
-23
-22
-21
-21
-21
-21
-23
-25
-26
-24
-23
-22
-20
-19
-16
-15
-13
-12
-11
-10
-12
-13
-13
-12
-12
-14
-16
-17
-16
-16
-16
-16
-16
-16
-18
-22
-26
-29
-31
-32
-31
-31
-31
-31
-30
-29
-29
-27
-26
-26
-26
-25
-23
-22
-25
-28
-32
-35
-34
-30
-23
-18
-18
-25
-38
-49
-50
-42
-28
-13
-4
-2
-9
-18
-28
-43
-58
-72
-78
-78
-73
-66
-58
-48
-40
-35
-30
-27
-25
-25
-25
-24
-23
-23
-22
-21
-19
-19
-20
-22
-21
-21
-22
-22
-22
-23
-23
-23
-24
-24
-24
-24
-23
-24
-24
-23
-21
-21
-22
-22
-22
-22
-23
-22
-21
-20
-19
-19
-19
-20
-21
-22
-22
-21
-20
-19
-18
-18
-19
-19
-19
-20
-21
-20
-20
-22
-22
-22
-21
-21
-22
-23
-23
-22
-23
-22
-21
-22
-22
-22
-21
-21
-22
-23
-21
-20
-20
-21
-22
-22
-22
-20
-18
-15
-14
-14
-13
-15
-17
-17
-16
-16
-18
-17
-17
-18
-20
-21
-20
-21
-22
-23
-22
-22
-22
-21
-23
-25
-28
-29
-29
-29
-29
-30
-30
-29
-29
-29
-27
-24
-21
-21
-22
-25
-31
-36
-38
-36
-33
-29
-28
-33
-46
-58
-62
-58
-46
-29
-13
-9
-14
-21
-30
-40
-55
-67
-77
-81
-81
-79
-71
-64
-54
-46
-38
-32
-28
-26
-25
-23
-21
-20
-20
-21
-21
-22
-20
-18
-17
-18
-18
-19
-19
-19
-18
-18
-17
-17
-16
-16
-17
-17
-18
-18
-18
-16
-13
-12
-13
-14
-13
-14
-15
-16
-15
-14
-13
-13
-13
-14
-14
-15
-15
-15
-14
-11
-8
-8
-8
-9
-9
-9
-9
-9
-10
-11
-11
-10
-9
-8
-8
-9
-9
-10
-11
-10
-9
-9
-9
-9
-9
-9
-9
-8
-7
-7
-7
-5
-3
-1
0
1
2
3
4
3
1
0
-2
-1
0
0
0
-1
-2
-2
-3
-4
-5
-7
-8
-7
-7
-7
-8
-10
-13
-14
-15
-15
-14
-14
-13
-15
-15
-14
-11
-7
-7
-11
-15
-19
-21
-23
-21
-18
-15
-15
-22
-37
-47
-48
-41
-24
-5
8
11
7
-1
-12
-27
-42
-55
-63
-66
-65
-60
-52
-42
-30
-20
-13
-9
-8
-6
-5
-4
-3
-1
-1
-2
-1
0
0
0
-1
0
0
0
0
-1
-1
-1
0
0
1
0
0
0
0
1
0
0
0
0
2
3
5
3
2
2
2
1
0
0
0
1
2
4
3
2
1
2
4
5
4
4
4
3
3
4
5
4
3
3
3
3
3
4
5
5
5
4
5
5
6
6
6
6
7
7
8
9
9
10
13
14
15
15
16
15
15
14
15
14
14
14
14
13
10
9
10
10
9
9
10
8
7
7
8
7
5
4
3
3
1
1
0
1
2
2
4
5
9
9
9
6
1
-3
-6
-5
-3
1
5
3
-8
-23
-32
-31
-21
-1
18
28
26
17
7
-6
-23
-39
-49
-53
-52
-47
-39
-30
-19
-9
-1
2
4
6
6
7
7
10
10
10
10
10
10
10
10
9
10
10
9
9
10
10
9
9
9
9
8
8
8
9
9
9
10
10
10
9
10
11
11
11
11
10
9
10
10
10
10
11
13
13
13
13
14
14
13
13
13
13
12
12
13
13
12
11
11
11
12
12
13
12
12
10
11
10
9
11
11
12
11
12
13
13
15
15
18
20
21
20
21
21
20
20
20
20
20
20
20
19
17
15
15
14
14
14
15
16
14
14
13
11
9
8
8
7
7
6
5
5
4
6
8
11
13
14
12
9
2
-1
-2
0
3
9
9
1
-11
-23
-26
-18
-4
15
30
32
24
15
4
-9
-25
-37
-43
-43
-39
-32
-23
-14
-6
1
6
9
9
10
11
11
10
11
13
13
13
13
14
13
12
12
12
12
12
12
12
12
11
11
12
11
11
10
10
10
11
12
13
13
13
14
14
14
13
13
13
13
13
13
13
12
12
13
15
15
15
15
15
16
15
14
14
13
13
15
16
15
15
14
14
12
12
13
13
14
13
13
13
14
14
15
16
16
16
16
18
19
21
24
26
27
26
26
26
27
27
25
24
23
24
23
23
21
21
22
22
21
19
20
19
18
17
15
14
12
11
9
9
7
6
7
9
10
11
15
18
19
17
14
10
5
2
2
7
11
14
11
3
-11
-21
-21
-13
2
19
29
28
20
11
0
-12
-25
-37
-42
-42
-38
-31
-22
-13
-5
1
6
9
10
11
11
12
12
13
14
14
15
13
13
13
12
12
12
13
12
12
13
14
13
12
11
11
10
10
11
11
10
10
11
11
12
13
14
15
15
16
16
17
15
14
13
14
16
17
19
19
20
19
18
17
17
17
17
17
15
14
13
12
14
14
15
16
15
15
14
15
15
16
17
17
17
17
17
17
17
17
19
21
23
25
27
27
25
24
24
24
24
25
26
24
22
20
19
19
19
19
19
19
19
18
17
16
14
14
14
14
13
12
11
11
12
12
14
15
17
19
20
19
14
9
4
2
4
10
18
21
16
2
-12
-21
-18
-5
14
30
34
29
21
11
0
-14
-27
-37
-41
-38
-32
-24
-16
-7
0
6
10
14
16
16
15
15
14
12
13
15
18
18
19
18
17
16
16
16
16
17
18
18
18
18
18
17
17
17
18
19
21
20
18
17
17
18
18
20
20
19
18
18
19
17
19
19
20
20
19
20
19
19
19
19
19
18
16
17
18
18
18
18
18
16
16
18
18
18
18
18
17
17
17
18
18
18
19
19
21
20
20
21
23
25
26
28
29
30
30
31
30
30
30
31
33
32
30
29
28
28
27
27
26
26
26
27
25
23
21
19
18
17
18
19
19
19
19
21
21
23
25
26
23
19
14
10
10
12
17
19
17
8
-5
-17
-22
-16
0
19
30
32
28
20
12
0
-14
-26
-35
-37
-35
-30
-23
-15
-5
3
10
16
21
23
23
24
26
27
27
26
27
29
30
30
29
29
28
29
29
29
29
28
29
29
29
28
29
29
28
28
28
30
30
31
31
32
31
31
31
29
28
28
30
31
30
30
29
30
30
30
30
31
31
29
29
29
29
29
30
30
30
29
28
29
28
28
28
29
30
30
30
31
30
29
29
28
28
28
29
30
30
30
31
34
36
38
39
40
40
39
40
39
38
35
35
36
38
37
35
35
34
34
34
35
34
33
33
32
31
28
27
25
24
24
23
24
24
24
24
24
27
29
33
34
33
29
23
18
16
18
22
26
24
13
-1
-13
-14
-5
12
32
45
44
38
31
21
10
-4
-14
-21
-24
-22
-18
-10
-1
8
16
20
23
26
28
30
30
30
32
33
33
32
33
32
33
34
35
35
33
33
34
35
35
36
37
36
35
33
34
34
34
33
33
34
34
36
37
37
36
37
38
37
36
36
37
37
37
37
37
38
37
37
37
37
36
37
37
37
36
35
36
35
36
36
35
35
34
34
34
35
34
35
36
36
35
35
36
36
36
36
38
38
37
38
39
40
40
42
44
46
46
46
47
46
46
44
44
43
42
42
41
42
40
40
40
40
39
39
40
39
39
36
35
33
31
32
32
32
31
31
31
33
33
33
36
39
40
36
33
28
22
20
21
25
29
28
21
9
-3
-9
-3
11
29
45
52
46
37
24
12
0
-11
-18
-20
-19
-15
-8
0
10
19
25
31
33
35
35
37
38
38
39
39
39
38
38
38
39
40
38
39
38
38
37
37
38
38
39
39
39
38
38
38
39
39
39
41
41
42
42
44
44
44
43
43
44
42
42
43
43
42
41
42
42
43
44
46
45
43
41
40
41
41
43
43
44
43
42
42
43
44
44
45
44
43
42
42
44
43
44
44
46
46
46
48
50
51
52
54
55
55
54
54
55
53
54
54
55
53
51
51
51
51
50
50
49
49
48
48
49
47
47
44
43
41
40
40
39
39
38
39
40
43
47
49
48
44
41
36
34
33
37
43
48
47
36
21
7
4
13
30
50
61
59
50
41
29
16
1
-9
-16
-17
-12
-5
2
11
21
29
34
37
40
42
41
42
43
44
43
42
43
42
43
44
45
44
42
41
40
41
41
42
42
42
41
40
41
42
42
41
42
41
42
44
45
46
45
47
49
52
52
50
46
43
42
42
45
47
48
50
53
53
52
50
50
52
51
49
47
47
46
48
51
52
52
49
48
47
45
46
44
45
44
46
50
53
54
52
51
49
50
50
54
59
63
65
63
59
53
51
50
51
52
52
55
55
53
49
48
48
47
48
49
52
52
53
51
50
45
41
39
40
42
42
42
40
38
36
37
41
45
47
46
45
40
35
33
34
39
45
50
46
34
17
6
5
13
32
51
59
55
45
35
25
12
-3
-14
-19
-20
-19
-12
0
10
20
26
31
32
33
33
35
37
38
39
39
38
37
37
39
39
39
38
38
37
37
38
38
37
36
37
38
41
43
45
43
40
38
37
38
39
41
42
42
42
43
43
42
41
41
42
42
42
41
40
40
40
42
43
42
40
39
40
39
39
37
36
35
36
37
39
39
37
37
37
39
39
39
38
35
36
37
38
36
37
38
39
39
40
42
44
45
45
46
47
46
46
46
48
47
47
46
44
42
39
39
39
39
39
39
39
38
38
37
36
33
31
28
26
26
28
30
30
31
30
31
34
36
38
37
33
25
20
19
22
26
30
31
22
4
-11
-16
-9
6
27
40
43
36
27
19
6
-8
-22
-30
-31
-30
-25
-18
-9
0
10
18
24
26
28
29
30
31
32
33
34
34
34
35
34
34
34
35
35
34
34
33
34
34
34
34
33
32
31
32
32
35
36
36
35
33
33
33
35
36
38
37
35
32
30
31
29
29
30
32
33
32
33
33
34
32
32
32
32
33
33
33
31
31
31
33
33
32
32
31
31
29
28
27
29
31
32
33
33
32
31
32
32
32
35
39
42
42
42
41
41
40
41
41
40
40
39
40
39
38
38
38
38
37
38
38
38
37
37
36
36
34
30
27
25
27
29
30
30
29
29
30
35
36
36
34
30
25
20
18
20
23
26
25
18
5
-7
-12
-7
5
26
42
48
44
34
24
13
0
-11
-19
-21
-20
-15
-9
0
8
18
26
31
33
33
35
35
37
35
36
36
37
38
39
39
37
37
36
37
36
37
37
36
35
33
33
31
32
33
35
35
33
33
34
35
35
35
36
36
35
33
34
35
36
36
37
38
35
34
33
33
33
34
37
36
36
35
36
36
35
34
34
34
34
35
35
35
33
33
35
34
35
35
37
37
37
36
35
34
34
35
35
36
35
37
40
43
43
43
43
42
43
42
42
41
42
43
43
42
39
38
38
38
37
36
37
37
37
36
36
34
32
30
28
28
26
26
27
28
28
28
30
32
35
36
37
35
32
28
22
21
22
27
30
31
24
10
-1
-7
-3
8
27
41
48
45
35
25
13
0
-11
-18
-20
-19
-14
-6
1
10
19
25
28
28
29
29
29
31
33
34
34
33
33
33
34
33
32
31
31
30
31
32
31
30
28
28
28
28
28
29
30
29
29
28
29
30
32
32
32
31
31
33
33
33
32
32
32
30
30
30
32
31
32
32
31
31
31
31
30
31
31
32
32
32
31
31
32
30
31
30
29
26
24
25
27
30
31
30
28
26
25
25
26
27
29
30
30
30
31
33
34
36
36
37
36
35
34
33
34
30
29
28
28
27
27
28
26
27
27
28
26
24
22
22
22
19
16
14
15
15
17
19
19
19
18
20
21
23
23
20
16
10
8
12
17
21
23
17
3
-8
-15
-13
-2
13
27
33
28
17
6
-5
-18
-29
-37
-37
-35
-31
-23
-12
-1
5
10
14
15
16
16
17
17
17
18
19
19
18
17
19
19
18
18
18
17
15
15
13
14
13
13
12
12
11
11
12
13
13
12
11
11
11
11
12
14
14
13
12
13
14
13
12
11
11
12
14
16
16
15
13
13
12
12
12
13
13
13
11
9
8
7
9
11
12
10
8
8
8
8
8
9
10
11
11
10
9
7
8
10
11
11
10
9
10
12
12
14
14
13
12
13
14
12
13
13
12
9
9
12
14
15
11
8
5
4
3
3
3
2
2
2
2
0
-1
0
1
1
0
-1
0
1
5
8
8
7
3
-2
-6
-7
-3
3
8
8
-2
-16
-30
-35
-30
-17
1
14
16
10
1
-10
-22
-36
-47
-53
-54
-49
-46
-43
-38
-29
-18
-12
-9
-6
-4
-4
-4
-3
-3
-4
-4
-3
-2
-2
-4
-3
-4
-4
-4
-5
-5
-5
-5
-6
-7
-7
-9
-9
-8
-8
-8
-8
-7
-7
-7
-7
-5
-5
-5
-6
-4
-2
-2
-3
-5
-6
-7
-7
-7
-7
-7
-8
-8
-8
-8
-6
-5
-5
-8
-10
-10
-9
-9
-9
-9
-10
-10
-9
-8
-9
-9
-10
-9
-9
-12
-14
-14
-12
-11
-10
-10
-11
-13
-13
-13
-13
-11
-10
-9
-8
-7
-6
-4
-2
-2
-3
-6
-9
-10
-8
-6
-8
-10
-11
-11
-12
-13
-12
-10
-11
-13
-14
-15
-16
-18
-20
-22
-23
-23
-22
-22
-22
-23
-22
-20
-18
-15
-13
-14
-19
-26
-31
-32
-31
-27
-21
-19
-23
-37
-54
-65
-66
-58
-39
-20
-10
-13
-22
-32
-42
-55
-68
-78
-85
-89
-85
-80
-70
-61
-51
-43
-36
-32
-27
-24
-23
-24
-24
-23
-24
-25
-24
-24
-23
-21
-17
-16
-18
-23
-26
-26
-25
-24
-25
-25
-24
-24
-25
-26
-27
-29
-28
-26
-25
-25
-25
-26
-27
-28
-28
-28
-28
-29
-29
-28
-28
-28
-29
-29
-30
-30
-28
-28
-28
-29
-30
-29
-29
-30
-29
-27
-28
-29
-31
-32
-33
-33
-32
-32
-31
-30
-29
-28
-28
-28
-29
-28
-28
-29
-28
-27
-27
-28
-27
-27
-25
-22
-20
-19
-21
-24
-27
-28
-28
-26
-23
-22
-22
-25
-27
-27
-28
-30
-31
-31
-30
-31
-30
-29
-30
-33
-37
-39
-41
-41
-40
-38
-38
-38
-37
-37
-39
-40
-38
-35
-33
-35
-40
-47
-53
-55
-50
-44
-43
-48
-60
-73
-81
-77
-63
-44
-28
-19
-21
-26
-34
-48
-64
-83
-94
-100
-100
-96
-91
-83
-73
-62
-53
-47
-42
-40
-39
-40
-38
-37
-37
-38
-36
-36
-37
-37
-35
-33
-34
-35
-37
-37
-36
-35
-34
-35
-36
-38
-38
-38
-39
-39
-40
-39
-40
-39
-37
-37
-37
-38
-38
-37
-37
-37
-36
-36
-35
-36
-36
-35
-36
-36
-36
-34
-34
-35
-35
-35
-35
-36
-36
-34
-33
-33
-32
-31
-31
-31
-31
-30
-31
-31
-30
-29
-29
-29
-28
-27
-27
-28
-27
-25
-26
-27
-27
-24
-22
-20
-17
-15
-14
-14
-14
-14
-16
-19
-20
-20
-20
-19
-19
-19
-21
-24
-27
-28
-27
-26
-25
-24
-24
-26
-26
-26
-28
-33
-36
-37
-36
-36
-33
-30
-30
-33
-33
-30
-26
-25
-25
-27
-32
-36
-37
-33
-29
-26
-25
-30
-43
-57
-62
-59
-47
-30
-15
-10
-14
-23
-34
-44
-59
-73
-86
-90
-88
-83
-76
-69
-61
-55
-47
-40
-35
-32
-30
-30
-31
-31
-30
-28
-28
-28
-27
-25
-25
-26
-28
-29
-30
-29
-27
-26
-26
-27
-28
-29
-30
-32
-33
-31
-30
-29
-28
-27
-27
-27
-27
-27
-27
-28
-27
-26
-26
-24
-25
-25
-26
-29
-30
-29
-29
-28
-27
-27
-27
-27
-26
-24
-24
-24
-24
-24
-25
-26
-26
-26
-24
-24
-23
-23
-22
-22
-22
-21
-22
-22
-21
-20
-19
-20
-20
-20
-18
-17
-15
-13
-13
-13
-13
-13
-12
-12
-12
-12
-12
-12
-11
-11
-13
-16
-16
-15
-15
-15
-16
-17
-19
-22
-22
-22
-22
-22
-24
-27
-27
-26
-25
-24
-23
-24
-22
-19
-16
-14
-14
-14
-18
-25
-32
-32
-28
-22
-15
-15
-26
-43
-56
-57
-48
-28
-10
-3
-9
-19
-29
-40
-53
-67
-76
-81
-80
-77
-71
-64
-57
-45
-36
-31
-31
-29
-26
-22
-21
-24
-29
-32
-31
-28
-24
-23
-22
-24
-24
-26
-27
-27
-26
-25
-24
-25
-26
-28
-30
-30
-30
-30
-30
-29
-28
-27
-28
-27
-27
-25
-25
-25
-25
-25
-25
-26
-25
-26
-27
-27
-26
-25
-25
-24
-23
-23
-23
-22
-21
-21
-21
-21
-21
-22
-24
-24
-24
-23
-22
-21
-21
-21
-22
-23
-24
-23
-22
-22
-21
-21
-21
-21
-20
-19
-19
-20
-21
-21
-20
-18
-16
-14
-14
-14
-15
-15
-17
-17
-17
-18
-19
-20
-19
-18
-18
-20
-21
-21
-19
-17
-18
-22
-27
-30
-30
-29
-29
-30
-29
-28
-28
-28
-28
-26
-25
-24
-21
-18
-18
-22
-28
-34
-37
-37
-33
-25
-21
-26
-40
-55
-64
-63
-51
-35
-19
-11
-15
-23
-33
-43
-56
-70
-79
-84
-85
-80
-75
-67
-58
-50
-43
-37
-31
-26
-25
-27
-28
-27
-25
-25
-25
-24
-25
-25
-27
-27
-24
-24
-24
-24
-25
-26
-26
-25
-26
-27
-28
-28
-28
-27
-26
-27
-27
-27
-26
-25
-24
-26
-27
-27
-27
-27
-25
-23
-24
-25
-26
-25
-23
-23
-23
-22
-22
-23
-23
-22
-22
-21
-21
-21
-21
-23
-24
-23
-23
-23
-23
-23
-24
-24
-22
-21
-20
-22
-23
-23
-22
-21
-20
-18
-18
-19
-21
-20
-18
-16
-16
-16
-16
-19
-19
-18
-17
-16
-16
-14
-13
-15
-17
-18
-18
-17
-16
-15
-16
-17
-16
-16
-17
-19
-22
-23
-25
-24
-23
-23
-23
-25
-25
-25
-24
-22
-20
-18
-19
-22
-26
-31
-34
-33
-28
-23
-21
-27
-40
-54
-61
-57
-44
-25
-13
-9
-13
-20
-28
-39
-52
-62
-70
-74
-73
-71
-65
-58
-50
-43
-36
-29
-22
-17
-17
-18
-17
-15
-15
-15
-15
-16
-17
-17
-15
-15
-15
-15
-16
-16
-17
-16
-15
-15
-15
-16
-16
-15
-15
-14
-13
-13
-13
-13
-13
-12
-12
-11
-10
-9
-9
-10
-9
-9
-10
-11
-10
-8
-7
-6
-5
-5
-7
-7
-5
-3
-3
-4
-4
-2
-3
-4
-6
-7
-7
-6
-4
-4
-4
-5
-5
-5
-6
-5
-4
-2
-1
-1
0
0
0
0
2
4
7
8
9
10
10
10
9
9
8
8
9
11
12
11
10
8
7
8
9
8
7
6
5
5
4
2
1
1
0
0
2
2
0
0
0
1
1
4
6
6
4
1
-3
-7
-7
-4
0
3
1
-6
-18
-27
-27
-18
-4
11
22
23
15
7
-2
-15
-29
-41
-48
-50
-48
-42
-34
-23
-13
-7
-2
3
5
6
6
7
8
8
7
6
7
8
9
9
9
9
8
10
12
13
12
12
11
10
9
10
11
11
11
10
11
12
12
14
14
14
14
14
15
16
14
13
12
13
14
14
14
12
12
13
12
11
11
12
13
14
14
14
14
14
15
14
14
14
14
15
15
16
15
17
18
16
14
13
15
17
19
20
21
20
20
20
23
26
26
29
29
28
26
26
28
27
25
24
25
26
25
22
19
19
19
19
17
17
16
17
16
14
12
11
10
8
7
7
9
8
8
9
10
12
13
17
20
18
13
7
2
0
1
8
16
20
17
5
-7
-17
-18
-6
10
26
32
28
21
11
0
-14
-29
-41
-48
-47
-42
-36
-27
-17
-8
-1
2
6
8
8
10
12
13
13
13
14
14
13
12
13
14
15
14
14
14
13
13
13
14
15
15
15
16
14
13
14
16
17
17
18
18
16
15
16
18
17
17
15
13
10
9
11
12
12
11
13
15
15
14
12
11
10
10
10
9
9
10
12
12
12
12
14
13
12
12
10
9
9
10
10
10
9
10
12
12
14
17
21
21
21
20
18
17
15
15
15
17
20
22
20
16
12
11
11
12
12
11
10
9
7
5
3
1
0
-1
-1
-2
-2
-2
0
0
0
3
8
12
13
13
8
1
-6
-7
-3
3
10
12
3
-11
-28
-34
-29
-17
0
15
18
13
3
-7
-19
-36
-51
-62
-65
-63
-59
-50
-38
-27
-17
-10
-6
-5
-4
-1
1
2
3
5
6
5
5
6
8
7
6
6
7
8
8
8
7
5
4
4
4
4
4
4
3
1
1
3
5
4
3
3
2
2
1
1
3
4
6
6
5
4
5
8
9
10
10
11
10
9
6
6
5
6
9
10
10
8
6
6
5
5
4
4
4
4
5
6
6
5
5
5
6
6
7
10
13
15
16
16
15
12
12
14
15
15
15
16
15
12
12
12
11
9
9
9
8
8
8
8
6
3
1
0
-1
-1
0
1
0
0
0
0
1
5
8
8
4
-2
-9
-12
-10
-7
-1
1
-2
-14
-30
-39
-37
-26
-7
13
22
20
11
3
-3
-14
-27
-38
-45
-47
-47
-41
-35
-27
-16
-6
2
7
10
12
14
15
16
18
18
18
18
19
20
21
22
23
23
23
23
24
23
21
20
20
22
21
22
21
20
20
22
23
23
22
22
23
23
23
22
22
23
23
25
26
26
24
24
27
27
27
27
28
28
28
27
26
25
24
25
26
28
27
27
26
25
25
26
28
28
29
28
26
26
26
27
28
30
32
34
36
38
38
38
38
38
38
38
40
41
40
39
38
37
36
38
38
37
35
35
37
36
36
34
33
31
30
29
28
27
26
26
26
26
25
26
29
31
34
34
33
30
26
22
18
18
20
25
27
22
10
-3
-8
-3
10
29
46
48
42
35
26
16
2
-9
-18
-21
-20
-15
-8
0
7
15
23
26
29
30
32
33
33
33
33
34
33
34
34
33
33
32
33
31
30
31
31
30
28
27
27
27
26
27
28
28
29
29
31
30
31
31
33
34
34
34
34
35
34
33
31
30
31
32
34
34
34
34
34
35
34
35
34
33
31
31
30
28
28
28
27
25
26
27
29
28
29
30
30
29
28
29
30
33
35
39
40
39
39
38
38
37
37
40
42
42
40
39
36
35
34
35
33
31
29
29
29
28
27
25
22
19
16
17
17
17
16
16
18
17
19
22
25
27
27
25
21
15
11
13
18
25
29
26
14
-2
-12
-10
0
17
34
40
36
28
18
9
-3
-17
-27
-32
-31
-27
-21
-14
-6
2
10
16
20
21
20
20
21
21
20
20
21
21
21
22
23
21
19
17
16
15
16
18
18
16
14
16
17
19
18
17
17
15
17
18
20
19
19
19
20
20
19
19
18
18
17
17
18
17
15
15
15
15
17
18
17
17
15
16
16
16
14
14
13
12
11
11
12
12
11
11
11
10
8
9
12
14
14
15
17
19
19
20
23
24
24
22
22
22
22
24
23
23
21
22
22
23
21
19
16
13
11
10
9
8
7
8
6
5
4
3
2
0
0
0
1
3
6
8
8
5
0
-5
-8
-8
-6
-1
3
3
-5
-22
-35
-41
-35
-19
0
12
14
8
0
-8
-20
-33
-46
-55
-59
-59
-56
-50
-42
-33
-24
-16
-10
-5
-2
-1
-1
0
0
1
2
3
3
1
0
-1
1
3
3
3
4
5
3
4
4
4
5
6
8
8
7
6
6
5
5
5
4
5
4
5
6
7
6
7
7
8
8
7
6
4
4
4
5
5
6
7
8
6
5
5
5
6
6
6
7
6
6
6
7
6
5
5
6
7
7
8
9
10
12
13
15
17
19
19
20
20
19
18
19
21
20
20
18
17
16
18
20
17
14
11
10
10
9
8
7
5
3
3
2
2
1
2
3
3
3
4
6
9
10
9
7
2
-3
-5
-4
-1
1
2
-4
-18
-31
-36
-30
-14
5
21
25
18
9
1
-7
-20
-33
-42
-45
-46
-44
-39
-31
-22
-11
-2
4
8
11
14
14
14
12
13
14
14
15
16
17
15
14
14
15
14
14
15
14
13
12
12
12
12
13
14
14
14
15
15
15
15
16
18
18
18
17
17
16
17
17
18
17
16
15
15
16
16
17
17
18
18
17
16
14
14
15
16
15
15
15
15
16
14
13
14
14
15
15
17
15
15
15
18
19
22
25
27
28
27
27
26
25
26
28
31
29
27
25
25
25
24
23
22
23
22
22
21
20
18
16
14
12
10
9
10
11
11
12
12
12
13
14
16
16
13
9
3
-2
-4
0
7
11
9
-2
-18
-30
-33
-23
-6
13
25
26
19
9
-2
-15
-30
-42
-50
-52
-49
-43
-35
-23
-13
-4
0
4
7
9
10
10
11
11
11
11
12
13
13
13
13
12
10
9
11
11
11
9
8
8
9
8
8
8
7
6
7
9
9
10
11
12
11
10
10
9
9
10
12
12
11
11
12
13
12
12
13
15
15
14
13
11
11
9
10
10
11
10
10
9
9
9
9
10
10
10
10
10
10
9
9
9
11
13
15
17
16
19
21
22
21
19
17
17
18
18
19
17
16
16
16
16
16
15
14
13
12
11
11
9
6
4
2
1
-1
-4
-7
-8
-8
-6
-3
0
2
3
2
-1
-7
-14
-18
-16
-10
-5
-1
-4
-17
-36
-48
-48
-39
-22
-3
3
-1
-12
-22
-32
-45
-59
-71
-75
-77
-75
-69
-61
-52
-41
-31
-22
-17
-13
-10
-9
-9
-9
-7
-7
-6
-4
-3
-3
-4
-5
-5
-4
-3
-2
-2
-3
-4
-6
-5
-4
-4
-5
-6
-6
-6
-7
-5
-4
-3
-4
-4
-4
-5
-6
-4
-1
0
-1
-3
-3
-2
-2
-1
0
0
0
0
0
0
0
0
-1
-1
-3
-3
-1
-1
-1
-3
-3
-4
-4
-3
-2
-2
-2
-1
0
1
2
3
4
5
7
9
11
9
8
9
10
11
9
10
10
10
9
9
9
8
5
4
4
4
4
2
0
0
0
-1
-3
-5
-7
-8
-7
-8
-8
-6
-5
-3
0
1
2
-1
-7
-14
-19
-20
-17
-11
-7
-10
-20
-34
-45
-47
-38
-22
-1
12
14
6
-3
-13
-27
-42
-54
-62
-64
-62
-56
-51
-42
-31
-21
-15
-11
-9
-7
-6
-6
-5
-2
0
0
0
1
1
1
1
1
1
1
1
1
2
2
1
0
0
0
0
0
0
0
0
-1
-1
-1
0
0
0
-2
-3
-3
-1
-2
-3
-3
-3
-4
-3
-1
-1
0
0
1
1
1
0
-1
0
0
1
2
1
0
0
2
2
1
0
0
0
1
3
4
5
4
2
2
3
4
6
8
11
13
13
12
11
10
11
13
14
13
12
10
9
8
7
6
6
5
3
3
2
1
0
-2
-4
-6
-8
-9
-8
-7
-7
-7
-7
-8
-6
-2
1
2
0
-3
-9
-14
-17
-17
-12
-8
-7
-11
-21
-33
-41
-41
-31
-13
4
15
14
7
-2
-14
-27
-42
-55
-61
-63
-60
-56
-48
-37
-27
-20
-13
-8
-5
-5
-4
-2
-2
-2
-2
-1
-1
-1
0
0
0
-1
-1
0
0
0
-1
-3
-4
-2
-1
1
1
0
-1
-1
0
0
1
3
3
3
2
1
2
2
1
3
4
3
0
0
0
-1
0
0
2
3
3
4
3
3
4
4
3
1
0
1
2
1
1
0
-1
-1
0
3
4
3
2
2
3
3
5
8
11
13
14
14
14
14
14
15
16
17
18
18
15
14
13
12
11
9
8
7
7
5
4
3
2
-2
-6
-6
-6
-6
-7
-8
-9
-9
-8
-6
-2
0
0
-1
-4
-10
-16
-20
-20
-16
-10
-5
-7
-19
-33
-43
-41
-28
-8
8
15
10
1
-7
-18
-33
-49
-65
-72
-74
-69
-60
-50
-39
-30
-23
-17
-13
-10
-9
-9
-11
-12
-10
-7
-6
-5
-5
-7
-10
-11
-9
-7
-7
-8
-9
-9
-9
-9
-9
-9
-9
-9
-10
-11
-11
-9
-9
-8
-9
-9
-9
-8
-7
-6
-5
-4
-3
-3
-2
-2
-2
-1
0
0
0
0
0
0
0
1
1
0
-1
-1
0
0
-1
-2
-4
-6
-6
-4
-3
-3
-4
-5
-4
-4
-4
-4
-1
1
3
5
6
7
9
12
13
13
11
11
12
13
11
9
9
9
10
11
11
10
7
6
5
2
-2
-6
-6
-6
-6
-8
-9
-10
-10
-10
-9
-7
-7
-3
0
0
-2
-8
-14
-19
-22
-18
-11
-3
-1
-8
-24
-41
-50
-46
-30
-10
4
9
4
-6
-17
-31
-46
-60
-73
-79
-81
-77
-71
-62
-49
-40
-31
-23
-16
-13
-12
-12
-11
-11
-10
-9
-6
-3
-3
-3
-3
-5
-6
-6
-5
-5
-6
-6
-6
-7
-8
-9
-8
-6
-5
-6
-6
-5
-5
-5
-7
-8
-6
-5
-3
-5
-4
-2
-1
-3
-5
-6
-5
-3
-3
-3
-1
0
-1
-1
0
-1
-2
-4
-5
-5
-5
-3
-3
-5
-7
-6
-5
-3
-2
-1
0
0
0
-2
-2
-1
-1
0
1
3
4
7
9
11
11
12
12
13
13
15
18
17
15
12
11
10
9
10
10
9
6
4
3
2
1
0
0
-3
-6
-8
-8
-9
-10
-8
-7
-4
-2
2
5
3
-1
-7
-12
-15
-16
-13
-7
-3
-6
-19
-38
-49
-48
-35
-13
6
13
6
-3
-10
-17
-30
-45
-57
-65
-66
-66
-63
-56
-46
-32
-22
-15
-12
-10
-8
-7
-3
0
2
3
4
5
5
5
4
3
3
2
3
4
5
4
3
4
4
4
3
4
3
1
0
2
4
5
6
8
9
10
7
5
2
2
2
3
5
4
4
4
4
3
3
3
5
5
5
5
3
2
3
5
5
4
4
5
5
4
4
3
3
2
4
6
5
1
0
1
4
6
8
9
10
10
12
13
13
12
12
13
14
15
15
13
10
9
10
11
12
10
7
4
2
0
0
0
-1
-3
-4
-5
-6
-5
-4
-4
-5
-6
-3
-1
0
2
4
3
-2
-8
-14
-14
-11
-5
-1
-4
-16
-32
-40
-38
-29
-13
0
4
1
-3
-7
-12
-26
-45
-61
-69
-68
-63
-55
-45
-36
-26
-19
-14
-12
-10
-8
-6
-5
-3
-4
-6
-7
-7
-5
-5
-7
-7
-5
-2
-2
-3
-4
-4
-7
-7
-6
-5
-6
-7
-7
-7
-8
-7
-6
-5
-4
-3
-2
-2
-5
-6
-7
-8
-8
-5
-3
-3
-5
-5
-4
-4
-3
-2
-1
-2
-3
-4
-4
-5
-6
-7
-7
-7
-7
-7
-7
-7
-7
-6
-4
-3
-4
-6
-7
-5
-5
-6
-6
-5
-2
-1
0
1
1
2
4
5
5
4
5
6
6
6
4
2
0
0
3
3
2
0
-1
-2
-2
-2
-4
-7
-9
-11
-12
-13
-13
-13
-12
-11
-11
-11
-10
-7
-4
-2
-3
-6
-9
-12
-14
-13
-9
-3
2
1
-8
-25
-37
-40
-34
-20
-6
0
-3
-10
-17
-24
-36
-50
-61
-67
-67
-64
-57
-47
-38
-26
-15
-7
-5
-9
-15
-19
-19
-17
-15
-13
-13
-14
-14
-14
-15
-14
-12
-9
-9
-9
-11
-11
-11
-12
-12
-12
-11
-12
-12
-11
-11
-12
-12
-10
-10
-11
-11
-9
-6
-4
-3
-4
-8
-12
-11
-9
-6
-7
-7
-5
-4
-5
-6
-6
-5
-3
-2
-2
-4
-7
-8
-7
-6
-6
-7
-5
-5
-6
-7
-7
-6
-5
-4
-2
-1
-4
-6
-4
0
-1
-1
0
1
1
3
7
8
7
6
7
9
9
10
10
10
9
8
6
6
5
4
3
2
2
1
2
1
-1
-4
-6
-4
-4
-5
-6
-6
-7
-7
-7
-5
-2
1
3
1
-1
-5
-10
-11
-8
-3
5
10
3
-11
-27
-35
-32
-20
-5
5
6
0
-6
-13
-24
-40
-57
-69
-71
-68
-58
-49
-38
-29
-20
-14
-9
-5
-2
-1
-2
-2
-1
0
0
-1
-1
0
0
0
1
1
1
0
0
0
0
1
0
0
0
0
1
2
3
1
0
2
3
2
3
5
6
6
4
5
5
6
8
10
9
8
6
5
4
5
6
7
8
6
5
5
3
2
0
0
0
2
4
6
6
4
2
2
2
2
2
3
3
4
4
6
7
8
8
9
11
11
14
16
17
16
15
15
16
18
19
20
17
15
13
14
13
11
11
10
10
6
5
5
4
4
3
3
0
-2
-3
-3
-3
-3
-1
0
2
5
10
9
5
-2
-9
-11
-9
-2
7
13
10
-1
-18
-31
-32
-24
-9
6
11
7
-1
-11
-25
-46
-66
-77
-77
-71
-63
-54
-45
-37
-27
-18
-12
-10
-8
-6
-7
-7
-6
-4
-2
-1
0
-1
-1
-3
-3
-4
-5
-5
-3
0
0
0
0
-1
-2
-2
-1
-1
-1
0
1
1
0
0
0
2
2
3
3
4
3
3
4
4
4
4
4
5
6
6
6
5
4
3
3
5
4
4
4
3
2
2
3
2
2
1
1
1
2
2
1
2
2
2
3
5
5
5
6
7
8
9
11
13
14
15
15
15
14
14
15
19
19
18
16
15
14
12
12
10
9
7
6
6
6
4
2
0
0
-2
-2
-3
-4
-5
-4
-2
-2
-1
2
7
9
7
1
-4
-10
-12
-8
-2
3
5
-2
-18
-35
-45
-40
-26
-9
2
3
-1
-9
-18
-30
-46
-62
-74
-78
-76
-70
-62
-52
-42
-32
-24
-18
-13
-13
-13
-12
-9
-7
-7
-6
-6
-7
-8
-8
-8
-8
-8
-7
-6
-8
-9
-11
-12
-11
-11
-10
-9
-9
-8
-8
-8
-9
-9
-9
-9
-10
-9
-9
-9
-10
-11
-11
-11
-11
-10
-9
-9
-10
-10
-10
-10
-11
-11
-12
-12
-13
-13
-12
-12
-12
-13
-13
-12
-13
-14
-14
-14
-16
-16
-15
-14
-14
-13
-13
-13
-13
-13
-12
-12
-11
-9
-6
-4
-4
-3
-4
-5
-6
-5
-3
-3
-2
-3
-4
-5
-6
-6
-6
-8
-10
-11
-12
-15
-16
-18
-18
-20
-21
-22
-22
-22
-22
-21
-21
-22
-22
-20
-17
-15
-17
-21
-25
-31
-34
-33
-29
-25
-21
-23
-36
-53
-66
-67
-57
-38
-20
-9
-10
-20
-29
-40
-51
-66
-78
-82
-84
-80
-74
-65
-56
-47
-38
-30
-24
-21
-20
-20
-20
-21
-20
-19
-18
-18
-18
-17
-18
-18
-18
-17
-17
-18
-18
-18
-18
-18
-17
-16
-16
-17
-18
-18
-18
-18
-17
-16
-16
-16
-18
-20
-20
-19
-17
-14
-12
-11
-12
-13
-16
-17
-15
-9
-3
1
-1
-12
-25
-32
-32
-29
-27
-26
-26
-25
-21
-17
-10
-5
-6
-12
-18
-23
-25
-26
-23
-20
-19
-19
-19
-17
-16
-18
-21
-21
-20
-16
-12
-9
-8
-9
-9
-8
-6
-4
0
2
0
-4
-9
-8
-7
-10
-15
-17
-17
-18
-20
-23
-26
-30
-32
-33
-32
-32
-33
-33
-31
-28
-25
-21
-21
-23
-26
-28
-29
-30
-32
-37
-40
-39
-33
-25
-22
-28
-42
-57
-62
-55
-39
-20
-7
-8
-18
-29
-39
-49
-64
-74
-85
-87
-86
-80
-72
-64
-53
-44
-37
-33
-30
-28
-28
-27
-27
-27
-28
-29
-29
-28
-27
-27
-26
-24
-23
-24
-24
-23
-24
-24
-24
-24
-26
-27
-28
-27
-26
-26
-24
-23
-23
-24
-24
-24
-24
-24
-23
-22
-24
-24
-24
-22
-22
-22
-22
-21
-21
-20
-19
-18
-18
-18
-16
-15
-15
-15
-14
-14
-14
-14
-14
-13
-13
-12
-11
-10
-8
-8
-8
-8
-8
-8
-8
-6
-6
-6
-5
-5
-4
-4
-2
0
2
3
4
4
4
3
3
3
4
5
5
4
2
1
1
1
0
0
-1
-1
-1
-2
-3
-4
-5
-7
-8
-9
-8
-8
-8
-7
-7
-8
-7
-5
-1
0
0
-3
-7
-12
-17
-18
-16
-11
-9
-11
-20
-35
-44
-43
-34
-18
0
11
11
3
-6
-15
-28
-42
-52
-57
-56
-54
-46
-38
-29
-21
-13
-7
-3
-1
0
0
0
1
2
3
3
3
2
2
2
2
1
1
1
0
0
-1
-1
-1
0
2
2
1
1
3
3
1
0
-1
-1
-1
2
5
6
5
4
4
2
2
3
4
5
6
7
7
6
5
6
7
8
8
7
7
7
8
8
8
7
8
9
8
7
4
3
2
2
3
4
6
6
6
3
0
0
2
5
8
10
12
15
17
17
15
14
14
13
13
14
15
14
12
11
10
9
8
8
8
7
4
2
2
2
1
-1
-2
-4
-4
-4
-2
-1
-1
-1
-1
0
2
4
3
0
-6
-11
-14
-15
-13
-10
-9
-13
-25
-36
-40
-38
-26
-8
7
16
15
9
2
-6
-16
-29
-39
-45
-48
-47
-44
-40
-32
-25
-15
-9
-4
-1
1
1
1
2
2
2
2
2
2
2
2
2
3
3
3
4
4
3
3
3
3
3
2
3
3
4
3
4
4
3
3
3
4
5
6
6
6
6
4
3
3
4
4
5
6
6
5
5
5
4
4
4
5
4
4
3
3
3
3
3
3
3
3
3
4
4
4
4
4
4
3
3
3
3
4
5
6
7
7
9
12
13
13
12
12
12
12
11
12
13
13
11
10
11
11
11
9
8
5
5
6
6
5
3
1
0
-1
-1
-2
-1
-2
-3
-3
-2
-2
-2
0
2
3
2
0
-4
-8
-10
-9
-6
-2
-1
-6
-16
-27
-34
-32
-20
-5
9
18
16
11
1
-10
-22
-35
-45
-51
-52
-49
-46
-38
-28
-19
-13
-9
-6
-5
-5
-5
-4
-3
-3
-4
-4
-4
-4
-4
-2
-2
-2
-1
-1
0
-1
-1
-2
-1
0
0
1
2
1
0
-1
-1
-2
-1
0
0
-1
-3
-4
-4
-5
-7
-7
-8
-8
-8
-8
-8
-9
-8
-9
-9
-10
-11
-9
-8
-8
-9
-10
-10
-10
-10
-9
-8
-9
-10
-10
-9
-9
-9
-9
-8
-8
-8
-7
-7
-7
-8
-6
-4
-2
0
0
3
2
1
1
0
0
0
1
1
0
-2
-4
-7
-8
-8
-6
-5
-6
-7
-9
-11
-13
-12
-12
-14
-17
-19
-20
-19
-18
-17
-17
-17
-18
-17
-14
-11
-10
-12
-14
-20
-25
-28
-26
-21
-17
-17
-26
-41
-56
-62
-54
-40
-21
-8
-4
-9
-18
-27
-37
-51
-66
-77
-80
-76
-71
-63
-55
-48
-41
-36
-31
-28
-27
-25
-24
-23
-22
-22
-23
-23
-24
-24
-23
-22
-23
-24
-23
-23
-23
-22
-19
-18
-16
-15
-16
-18
-20
-20
-19
-16
-16
-17
-17
-16
-15
-16
-16
-18
-20
-21
-20
-20
-21
-21
-22
-22
-23
-23
-22
-21
-21
-25
-27
-27
-26
-24
-21
-20
-21
-23
-25
-27
-28
-28
-28
-28
-27
-27
-23
-22
-23
-25
-29
-33
-33
-29
-23
-19
-16
-14
-14
-16
-17
-15
-14
-14
-15
-14
-12
-12
-13
-15
-16
-16
-17
-16
-16
-17
-19
-22
-23
-22
-21
-23
-26
-26
-27
-27
-29
-30
-31
-29
-26
-23
-22
-21
-19
-21
-26
-32
-37
-38
-35
-30
-27
-30
-39
-52
-66
-74
-69
-52
-29
-12
-7
-12
-21
-32
-42
-53
-65
-76
-86
-88
-86
-81
-74
-64
-54
-47
-41
-36
-32
-30
-28
-27
-25
-25
-26
-25
-22
-19
-20
-23
-25
-28
-28
-26
-23
-24
-25
-25
-26
-25
-25
-24
-23
-22
-23
-24
-23
-21
-21
-21
-21
-24
-28
-28
-27
-23
-21
-19
-20
-23
-26
-27
-26
-25
-25
-25
-25
-24
-22
-20
-20
-22
-25
-25
-23
-21
-21
-21
-21
-22
-23
-23
-21
-20
-18
-18
-20
-21
-22
-21
-20
-19
-20
-21
-22
-21
-19
-17
-14
-12
-11
-10
-9
-11
-10
-9
-9
-10
-10
-9
-10
-13
-15
-14
-13
-14
-14
-15
-15
-17
-18
-18
-19
-19
-21
-22
-24
-25
-26
-28
-28
-29
-28
-26
-23
-19
-18
-19
-21
-25
-32
-37
-37
-34
-32
-33
-35
-43
-56
-67
-68
-58
-39
-16
-2
-2
-10
-20
-30
-44
-59
-72
-78
-79
-75
-71
-64
-56
-47
-37
-30
-26
-22
-19
-17
-17
-18
-18
-17
-15
-14
-12
-10
-10
-12
-15
-14
-14
-14
-14
-14
-14
-14
-14
-14
-14
-14
-13
-11
-12
-13
-16
-16
-14
-13
-12
-10
-9
-10
-11
-13
-13
-13
-13
-11
-11
-10
-9
-9
-10
-11
-11
-9
-9
-9
-10
-9
-10
-10
-10
-9
-8
-7
-6
-6
-7
-7
-7
-4
-4
-5
-6
-4
-2
-1
-2
-2
-3
-5
-3
0
3
7
9
11
9
7
6
6
8
8
10
10
9
7
6
5
3
1
1
3
2
0
0
0
0
-4
-7
-7
-6
-5
-3
-4
-5
-6
-5
-2
-1
-1
-2
-4
-8
-13
-16
-15
-13
-12
-12
-16
-25
-38
-44
-42
-31
-12
5
13
10
2
-6
-16
-31
-47
-59
-63
-63
-61
-54
-43
-33
-23
-16
-10
-9
-8
-6
-3
-1
0
1
3
3
2
3
5
3
2
2
3
3
2
3
4
4
3
2
1
1
1
3
4
5
4
4
5
5
7
8
8
8
8
8
9
9
9
8
8
8
8
9
12
12
12
12
12
12
11
11
12
12
11
11
13
14
13
13
14
14
15
15
15
16
15
15
15
16
17
19
19
19
20
23
25
24
23
23
25
26
25
26
28
30
29
27
24
23
23
24
25
26
25
23
22
19
16
14
15
16
15
14
13
13
11
11
12
13
13
14
19
22
24
22
19
14
8
6
7
13
18
21
18
8
-5
-15
-13
-4
10
26
34
31
24
15
4
-7
-20
-32
-39
-40
-38
-34
-26
-16
-5
2
8
12
12
13
13
14
14
14
14
15
16
15
15
15
17
15
15
13
12
12
12
13
13
14
14
15
15
15
14
15
17
17
17
15
14
14
16
17
17
18
18
19
18
17
16
17
18
18
18
19
19
18
18
19
19
19
18
18
16
14
13
13
13
12
12
13
14
13
14
15
15
16
15
17
19
20
21
20
20
18
20
22
25
25
25
26
24
24
23
27
28
28
27
25
24
23
25
25
22
18
16
18
20
20
17
15
12
11
10
12
13
13
12
12
13
14
17
20
22
21
18
15
10
7
9
14
20
24
22
10
-7
-18
-19
-9
5
18
22
19
11
2
-8
-22
-33
-41
-45
-47
-47
-43
-34
-23
-13
-5
0
6
7
7
6
7
9
9
10
11
12
12
11
10
8
8
8
9
8
7
5
5
7
7
9
9
9
8
8
7
5
4
6
10
12
12
11
11
9
8
9
10
10
10
11
12
12
11
10
8
8
9
9
9
7
5
5
5
6
5
6
6
4
4
4
4
3
2
1
2
2
2
1
2
3
3
4
5
6
5
7
10
11
12
11
11
9
9
10
12
11
9
8
8
8
6
3
0
-2
-2
-1
-1
-1
-1
-3
-5
-8
-9
-10
-10
-9
-9
-9
-9
-8
-4
-2
-3
-7
-12
-18
-20
-20
-15
-10
-7
-10
-23
-41
-52
-53
-44
-27
-7
2
0
-8
-15
-22
-34
-47
-59
-67
-70
-73
-73
-69
-60
-47
-36
-28
-24
-21
-18
-17
-17
-16
-16
-14
-13
-11
-11
-12
-15
-16
-13
-11
-11
-12
-13
-12
-11
-10
-10
-10
-12
-13
-14
-14
-16
-17
-17
-15
-14
-13
-13
-14
-15
-16
-16
-16
-18
-19
-19
-18
-19
-18
-18
-19
-21
-21
-19
-18
-16
-16
-16
-18
-18
-17
-17
-17
-17
-17
-16
-16
-15
-15
-14
-14
-14
-16
-18
-18
-17
-15
-13
-13
-12
-11
-7
-4
-3
-4
-5
-5
-5
-4
-3
-3
-4
-5
-6
-7
-8
-6
-5
-5
-6
-8
-12
-15
-16
-17
-19
-22
-24
-24
-23
-22
-23
-24
-27
-28
-28
-26
-23
-20
-19
-22
-25
-28
-33
-39
-42
-43
-42
-39
-38
-45
-57
-71
-76
-70
-56
-36
-16
-8
-12
-21
-30
-39
-53
-67
-78
-86
-89
-89
-80
-69
-57
-46
-37
-32
-32
-31
-28
-25
-25
-26
-26
-25
-24
-23
-20
-19
-19
-20
-22
-21
-20
-19
-18
-18
-20
-22
-22
-22
-23
-23
-23
-23
-23
-23
-21
-21
-23
-25
-23
-20
-18
-17
-18
-18
-19
-19
-19
-20
-20
-20
-19
-19
-18
-18
-17
-16
-16
-16
-15
-14
-14
-15
-13
-13
-14
-14
-13
-13
-12
-11
-10
-10
-12
-12
-12
-10
-9
-7
-4
-3
-4
-5
-2
1
3
3
2
0
0
2
5
6
4
2
1
1
0
-1
-4
-6
-7
-7
-5
-6
-8
-11
-13
-16
-17
-18
-18
-17
-18
-18
-16
-14
-12
-10
-7
-8
-14
-21
-26
-28
-29
-28
-25
-21
-24
-38
-52
-61
-58
-44
-23
-2
9
6
-2
-12
-25
-39
-56
-69
-75
-75
-69
-63
-52
-41
-29
-21
-17
-14
-12
-10
-9
-7
-7
-7
-6
-6
-5
-5
-6
-6
-5
-5
-4
-3
-3
-4
-5
-5
-5
-5
-4
-4
-4
-4
-4
-4
-3
-3
-2
-1
-1
-2
-2
-2
-2
-3
-3
-2
-2
0
1
1
0
0
0
0
1
1
1
2
3
3
3
4
3
2
0
0
0
2
3
3
3
2
1
2
4
4
4
5
6
8
10
13
14
15
15
15
15
14
16
17
18
17
16
14
13
12
13
13
11
8
6
5
4
2
3
1
0
-1
-3
-4
-5
-6
-5
-3
-2
-3
-2
1
3
2
0
-4
-11
-16
-17
-15
-12
-9
-11
-19
-33
-47
-48
-38
-20
0
12
12
4
-7
-18
-30
-45
-59
-68
-69
-64
-59
-49
-40
-29
-19
-11
-6
-5
-4
-2
-1
-1
-1
0
1
2
3
4
5
2
0
-2
-1
0
0
2
3
3
3
3
2
1
1
1
3
2
2
3
4
4
3
4
5
6
6
6
6
6
6
6
7
6
6
7
8
8
6
6
5
5
5
6
7
4
3
3
2
2
2
3
4
4
5
5
5
4
3
6
8
9
9
10
11
10
12
13
13
13
14
14
14
15
16
16
15
13
12
13
12
10
9
8
6
5
3
1
-1
-4
-7
-7
-8
-8
-8
-8
-7
-8
-7
-5
-1
1
2
1
-3
-10
-17
-21
-20
-16
-10
-9
-17
-36
-52
-56
-50
-32
-8
5
5
-3
-14
-23
-34
-48
-61
-71
-74
-74
-69
-60
-51
-40
-29
-22
-17
-13
-10
-9
-10
-10
-9
-8
-8
-9
-9
-9
-8
-7
-5
-5
-7
-8
-7
-6
-7
-7
-6
-6
-6
-8
-9
-10
-9
-7
-5
-5
-6
-6
-6
-4
-4
-3
-3
-3
-4
-5
-4
-3
-1
-2
-2
-3
-2
-1
-2
-3
-5
-5
-4
-3
-2
-1
0
0
-1
-4
-5
-5
-4
-3
-2
-3
-5
-4
-1
0
1
1
1
1
0
1
3
6
7
9
11
12
12
11
10
11
12
13
12
9
6
6
7
6
4
3
3
5
3
0
-2
-5
-7
-8
-9
-9
-9
-7
-4
-3
-3
-5
-3
-1
-1
-2
-6
-14
-24
-28
-24
-20
-16
-14
-18
-31
-43
-48
-44
-30
-11
3
6
0
-7
-17
-30
-45
-58
-68
-69
-64
-54
-43
-37
-33
-26
-16
-10
-8
-6
-3
-2
-1
0
2
1
0
-2
-1
0
0
0
0
-1
-2
-3
-1
0
-1
-1
-1
0
0
0
0
0
-1
-1
-1
0
0
2
3
3
2
-1
-2
-2
0
2
1
1
2
3
4
4
4
3
4
3
2
2
5
6
6
6
6
5
3
3
5
5
4
3
3
4
6
7
9
9
7
7
11
16
18
17
16
17
18
20
21
21
20
18
18
16
16
17
20
21
17
14
11
12
12
11
9
7
6
3
2
2
3
6
8
8
10
13
13
14
15
17
16
12
4
-7
-14
-14
-11
-7
-1
0
-8
-20
-27
-23
-13
0
12
20
17
10
4
-2
-16
-36
-51
-55
-55
-48
-39
-29
-20
-13
-6
-2
1
4
6
6
7
9
12
12
8
4
3
5
7
10
10
10
8
8
7
8
9
9
10
10
10
9
9
10
9
10
11
10
9
9
9
10
10
11
12
13
13
12
12
12
11
11
12
13
13
15
15
12
10
10
10
9
9
8
9
9
8
8
8
9
9
10
10
10
10
10
10
10
10
10
12
14
16
19
21
22
21
21
21
21
22
23
23
20
17
14
15
15
15
14
14
13
11
11
11
10
7
6
6
4
3
3
4
2
2
3
4
5
8
12
12
10
5
0
-4
-6
-3
2
5
2
-6
-20
-32
-34
-26
-10
6
16
14
8
0
-9
-20
-33
-44
-51
-54
-51
-46
-39
-31
-21
-12
-7
-4
-1
0
0
1
3
4
3
2
1
1
1
1
2
2
2
2
2
2
0
0
0
0
-1
0
1
1
0
0
1
0
0
2
4
4
4
4
3
3
1
1
2
4
4
5
4
2
1
1
1
0
0
1
1
0
0
0
-1
-1
-1
0
-1
-1
-1
-1
-1
-3
-4
-4
-3
-2
-1
-1
-1
-1
0
2
4
5
5
6
7
5
5
5
5
5
5
5
3
2
1
1
0
-1
-2
-3
-4
-5
-6
-6
-8
-10
-12
-12
-13
-13
-12
-12
-12
-13
-12
-11
-8
-6
-7
-10
-15
-21
-25
-24
-21
-18
-17
-24
-37
-52
-60
-58
-44
-27
-10
-3
-7
-17
-26
-35
-46
-60
-70
-74
-73
-71
-64
-56
-46
-36
-27
-20
-17
-16
-14
-12
-12
-12
-10
-9
-9
-9
-9
-9
-8
-8
-6
-6
-7
-9
-10
-9
-9
-9
-9
-8
-8
-9
-10
-10
-10
-10
-9
-8
-8
-9
-8
-8
-8
-7
-6
-5
-5
-5
-6
-5
-6
-7
-8
-8
-8
-8
-7
-6
-5
-6
-6
-6
-6
-6
-6
-5
-5
-5
-6
-7
-8
-8
-7
-7
-7
-7
-6
-5
-5
-6
-6
-5
-4
-2
0
2
4
4
3
3
4
3
2
2
2
2
0
0
-1
-2
-2
-1
0
-2
-3
-4
-4
-4
-4
-3
-4
-6
-9
-9
-10
-10
-10
-9
-7
-7
-6
-4
-2
-2
-4
-6
-9
-14
-16
-15
-13
-10
-7
-10
-22
-38
-46
-44
-32
-14
2
9
5
-5
-15
-28
-41
-54
-61
-63
-61
-56
-47
-37
-25
-18
-11
-6
-4
-4
-4
-2
-1
-1
-1
0
0
-1
0
0
0
0
-1
-1
-1
-1
0
1
0
-1
-1
0
0
-1
-1
-1
-1
-1
-1
0
0
1
2
3
2
1
0
2
2
3
4
4
3
2
1
1
2
2
3
3
4
4
4
3
2
3
5
5
5
5
7
7
5
3
4
5
4
3
4
6
6
7
7
8
9
12
15
16
16
15
16
13
11
10
12
13
13
14
15
13
11
10
9
8
7
8
10
11
12
9
4
0
-2
-1
0
1
1
1
1
0
-2
-1
3
10
12
10
5
-3
-12
-17
-14
-6
-1
0
-4
-14
-28
-36
-35
-27
-10
7
15
11
1
-8
-19
-32
-44
-52
-53
-50
-47
-43
-36
-28
-22
-15
-9
-4
-3
-3
-4
-3
0
4
4
1
-4
-6
-3
-1
-2
-4
-4
-6
-9
-8
-6
-5
-6
-8
-10
-11
-12
-13
-14
-13
-12
-11
-10
-9
-8
-6
-5
-4
-3
-2
-2
-3
-5
-6
-6
-6
-6
-5
-3
-2
-3
-3
-3
-3
-3
-2
-2
-2
-3
-5
-6
-6
-6
-7
-6
-6
-6
-5
-4
-3
-3
-3
-4
-2
-2
-2
-2
-3
-1
3
8
9
5
0
0
2
3
3
4
5
4
2
0
-3
-5
-6
-5
-2
0
3
5
5
3
0
-6
-13
-20
-23
-23
-21
-19
-19
-19
-21
-22
-23
-20
-16
-13
-12
-13
-16
-22
-30
-33
-33
-31
-27
-25
-31
-43
-56
-60
-54
-39
-21
-7
-2
-8
-17
-27
-40
-54
-66
-72
-73
-71
-66
-59
-50
-43
-36
-32
-29
-29
-26
-24
-24
-25
-26
-25
-25
-25
-23
-21
-19
-19
-20
-22
-23
-23
-22
-20
-19
-21
-23
-24
-25
-25
-24
-23
-21
-22
-23
-23
-22
-22
-21
-20
-19
-19
-21
-22
-22
-22
-22
-21
-20
-20
-20
-19
-17
-16
-16
-14
-14
-17
-18
-17
-14
-12
-14
-16
-21
-24
-24
-23
-22
-23
-24
-24
-23
-23
-23
-22
-21
-20
-19
-16
-15
-14
-15
-16
-16
-15
-13
-13
-13
-14
-13
-11
-11
-11
-11
-10
-10
-13
-16
-19
-22
-22
-21
-19
-18
-18
-18
-18
-20
-24
-26
-26
-27
-29
-31
-29
-29
-27
-23
-19
-15
-13
-14
-18
-24
-31
-39
-44
-46
-45
-42
-42
-50
-64
-72
-71
-61
-43
-23
-12
-12
-20
-28
-35
-48
-64
-78
-85
-85
-83
-76
-70
-62
-56
-46
-36
-30
-27
-26
-26
-26
-23
-21
-20
-21
-21
-18
-18
-19
-21
-21
-20
-19
-19
-18
-17
-15
-15
-15
-16
-18
-22
-22
-18
-13
-12
-17
-21
-22
-20
-17
-17
-18
-21
-24
-25
-25
-25
-25
-22
-20
-19
-20
-23
-24
-24
-22
-21
-20
-19
-18
-18
-20
-22
-22
-21
-21
-22
-22
-21
-19
-17
-17
-18
-21
-21
-20
-16
-13
-13
-13
-13
-12
-12
-10
-8
-6
-3
1
5
5
2
-1
-6
-12
-15
-15
-13
-12
-12
-14
-14
-13
-13
-14
-16
-17
-16
-16
-16
-17
-20
-22
-23
-24
-24
-23
-22
-22
-26
-29
-28
-24
-22
-20
-18
-18
-20
-26
-31
-35
-36
-37
-37
-32
-31
-39
-56
-66
-62
-47
-23
-3
6
5
-2
-13
-27
-42
-55
-65
-73
-75
-73
-66
-56
-44
-31
-21
-14
-13
-17
-23
-27
-28
-26
-24
-22
-20
-18
-18
-17
-15
-14
-15
-17
-16
-13
-12
-12
-13
-14
-15
-16
-17
-15
-13
-12
-11
-10
-10
-12
-14
-15
-15
-14
-12
-9
-9
-9
-8
-5
-2
-2
-1
0
1
-1
-6
-10
-11
-12
-13
-12
-11
-8
-4
-1
-1
-3
-6
-9
-10
-11
-9
-6
-4
-4
-5
-5
-5
-8
-9
-8
-6
-4
-2
-1
-1
0
3
6
7
7
7
9
8
6
6
7
7
7
6
5
4
2
3
2
1
-2
-2
0
1
0
-2
-5
-7
-10
-11
-11
-10
-9
-7
-8
-8
-9
-7
-4
-1
-1
-4
-8
-14
-21
-21
-18
-14
-11
-12
-19
-32
-47
-54
-45
-26
-5
10
12
5
-5
-18
-33
-50
-65
-69
-67
-61
-53
-45
-37
-29
-19
-11
-5
-1
0
0
2
2
2
0
-4
-7
-7
-4
-2
0
0
0
-1
-2
-2
-2
-1
-2
-2
-2
-2
-3
-4
-3
-3
-3
-3
-2
0
0
0
0
0
-1
-2
0
1
3
3
4
3
2
1
2
4
4
5
6
7
7
8
8
9
8
7
5
5
6
7
9
9
7
7
7
9
10
12
12
11
10
9
9
9
9
10
12
16
19
20
21
22
22
22
22
23
22
21
18
16
15
14
15
14
12
11
11
12
11
11
10
10
9
10
11
9
6
3
1
0
0
1
3
5
6
9
12
12
8
2
-4
-10
-9
-3
2
4
0
-15
-31
-41
-40
-26
-3
15
24
21
12
2
-10
-27
-42
-53
-56
-53
-46
-37
-27
-15
-5
0
0
0
0
1
3
5
7
8
9
9
9
7
4
3
4
6
7
8
8
6
5
5
6
5
5
5
5
5
5
6
6
6
4
4
5
5
5
6
8
9
10
8
6
6
8
11
11
10
8
9
11
13
12
11
10
9
10
11
11
10
10
10
10
10
9
10
10
10
8
9
9
9
10
12
15
14
14
13
14
15
16
16
16
18
19
23
24
24
22
21
20
19
19
18
17
13
12
13
13
14
14
14
14
13
11
9
9
9
9
7
6
2
0
1
3
4
2
1
3
6
10
12
9
1
-5
-11
-11
-7
-1
1
-3
-17
-36
-46
-45
-35
-15
3
12
9
0
-7
-15
-30
-46
-60
-65
-65
-61
-53
-45
-38
-29
-18
-8
-2
1
2
4
2
0
-1
0
3
4
4
3
4
3
1
0
1
2
0
1
1
2
3
5
6
3
0
-1
0
1
3
3
3
2
1
1
1
3
5
5
4
1
1
1
2
2
2
1
1
2
3
2
1
2
4
4
4
4
6
8
6
3
2
1
3
4
5
4
3
2
0
0
0
0
2
4
6
5
6
6
6
7
8
10
12
14
14
12
8
6
6
8
10
11
13
14
13
9
6
3
0
0
1
3
4
5
3
-1
-7
-11
-11
-10
-8
-8
-7
-6
-6
-6
-4
-2
-3
-5
-9
-13
-19
-23
-22
-18
-14
-15
-22
-36
-50
-55
-49
-32
-13
5
12
8
0
-8
-19
-35
-56
-72
-78
-76
-71
-64
-53
-38
-29
-22
-14
-5
-1
-7
-14
-18
-17
-13
-10
-9
-9
-9
-11
-10
-8
-6
-6
-7
-8
-9
-9
-8
-7
-9
-11
-12
-11
-7
-5
-7
-11
-14
-14
-11
-8
-8
-8
-8
-8
-9
-8
-5
-2
-6
-12
-13
-9
-6
-5
-5
-4
-3
-4
-5
-6
-8
-7
-5
-3
-4
-7
-8
-8
-9
-8
-6
-4
-4
-4
-5
-5
-6
-7
-9
-7
-7
-6
-5
-3
-1
-4
-4
-3
0
2
6
9
9
6
4
6
6
2
0
1
4
5
3
0
-2
-3
-4
-4
-4
-2
1
0
-6
-12
-15
-15
-17
-20
-21
-18
-16
-14
-14
-14
-12
-10
-7
-5
-5
-8
-14
-24
-32
-34
-30
-24
-19
-25
-38
-52
-57
-49
-31
-8
9
15
10
0
-9
-22
-40
-60
-75
-77
-71
-63
-56
-46
-33
-21
-17
-14
-12
-9
-7
-5
-4
-4
-4
-4
-4
-3
-4
-6
-7
-6
-4
-2
-2
-3
-5
-5
-2
-2
-4
-8
-11
-10
-8
-6
-5
-2
-1
-3
-7
-8
-6
-4
-4
-4
-6
-6
-5
-4
-2
-3
-4
-5
-3
0
1
3
0
-1
-3
-2
0
1
2
1
1
1
1
1
0
0
1
2
0
1
2
3
2
2
3
2
2
1
2
3
5
6
6
8
9
11
12
14
14
14
13
11
10
9
10
10
10
10
9
7
5
3
3
3
2
2
3
3
3
1
0
-2
-5
-7
-7
-5
-4
-4
-2
-1
0
3
6
6
3
-2
-9
-14
-15
-12
-6
-2
-6
-17
-33
-44
-42
-28
-7
11
19
15
7
-2
-15
-32
-51
-62
-66
-63
-56
-47
-37
-27
-17
-9
-4
-1
2
4
3
2
2
2
3
4
6
7
5
4
3
4
3
3
4
5
4
4
4
3
1
0
0
0
0
3
4
4
3
2
3
4
5
7
9
9
9
8
9
9
8
8
8
9
10
11
11
11
10
8
9
9
9
9
10
10
8
9
9
10
9
9
10
10
9
9
9
9
9
9
10
11
10
11
12
12
11
12
13
15
16
18
19
19
19
18
19
18
18
18
19
18
16
15
14
13
12
12
13
14
14
13
13
11
9
7
6
5
4
4
3
3
3
4
5
7
11
15
16
13
8
2
-1
-1
1
7
12
11
0
-17
-31
-36
-28
-11
8
17
17
11
1
-10
-27
-43
-53
-57
-55
-51
-45
-37
-27
-17
-9
-4
-1
2
3
4
4
5
6
6
5
6
7
7
7
7
6
5
5
5
5
5
5
7
6
6
4
5
3
3
3
4
5
5
5
5
4
3
2
3
4
4
4
4
2
1
1
2
2
2
3
4
4
3
3
3
3
3
3
4
3
3
3
2
0
-2
-3
-3
-2
0
0
1
0
-1
-1
0
0
0
0
0
1
1
2
3
4
7
10
10
10
9
9
8
7
7
8
10
10
9
9
7
6
5
6
6
5
3
2
3
1
0
-1
-2
-4
-6
-5
-5
-5
-6
-5
-4
-3
-1
1
5
5
2
-1
-6
-11
-14
-12
-8
-4
-4
-12
-26
-42
-46
-41
-27
-7
7
11
6
-2
-12
-23
-38
-51
-60
-63
-61
-58
-51
-42
-31
-22
-15
-8
-3
-1
-1
0
0
0
0
2
2
2
2
3
2
1
0
0
0
0
1
2
2
0
-1
-1
-2
-2
-2
0
0
1
2
2
2
2
2
2
1
0
0
0
-1
-1
-1
0
1
1
1
1
1
0
0
0
0
2
2
3
3
3
2
0
-1
-2
-1
0
1
1
1
1
1
2
3
3
2
1
2
4
4
3
3
4
6
7
9
10
10
9
10
11
11
10
9
9
8
8
6
4
4
4
5
4
3
2
3
2
0
-1
-3
-3
-4
-5
-6
-7
-7
-8
-7
-7
-6
-5
-2
1
2
0
-3
-7
-13
-16
-15
-12
-9
-9
-15
-27
-39
-41
-35
-20
-3
8
12
8
0
-8
-19
-33
-46
-56
-58
-57
-53
-44
-33
-22
-16
-11
-7
-4
-3
-3
-3
-3
-1
0
0
0
0
0
0
1
1
1
1
1
1
0
-1
-2
-4
-4
-3
-2
-1
-3
-4
-4
-3
-2
-3
-3
-6
-7
-6
-5
-6
-6
-6
-6
-5
-5
-4
-4
-5
-5
-2
0
0
-2
-3
-3
-3
-2
-1
-3
-4
-5
-5
-4
-4
-5
-4
-2
-1
-2
-3
-3
-4
-4
-3
-2
-1
-2
-2
-1
-1
-2
-1
0
1
2
4
7
7
6
4
3
4
5
7
6
4
3
5
6
5
3
2
1
-1
-3
-3
-1
-1
-1
-2
-6
-8
-8
-7
-6
-6
-7
-8
-10
-11
-12
-11
-8
-5
-1
1
0
-4
-13
-19
-21
-18
-12
-6
-8
-21
-37
-48
-47
-34
-15
4
13
8
-1
-10
-22
-40
-59
-71
-73
-69
-62
-52
-40
-29
-21
-16
-15
-14
-12
-8
-7
-6
-6
-5
-5
-7
-6
-5
-4
-5
-5
-5
-5
-6
-8
-9
-10
-10
-9
-8
-7
-8
-8
-9
-9
-10
-10
-9
-8
-7
-7
-5
-4
-5
-8
-9
-8
-7
-6
-5
-4
-6
-8
-10
-9
-8
-7
-6
-5
-4
-4
-5
-7
-11
-12
-11
-10
-10
-11
-12
-12
-12
-12
-10
-9
-9
-8
-8
-9
-11
-13
-13
-13
-13
-12
-12
-11
-12
-12
-11
-8
-5
-4
-1
0
-1
-2
-3
-3
-4
-4
-3
-2
-3
-5
-7
-7
-7
-8
-9
-9
-9
-9
-10
-10
-12
-15
-17
-18
-19
-21
-21
-21
-21
-21
-20
-19
-19
-18
-15
-11
-11
-13
-18
-24
-29
-30
-27
-22
-19
-23
-36
-51
-61
-61
-50
-30
-13
-4
-6
-13
-21
-32
-46
-61
-72
-79
-80
-76
-69
-61
-51
-40
-31
-25
-21
-16
-15
-15
-14
-12
-11
-12
-12
-11
-10
-11
-11
-10
-10
-10
-11
-11
-13
-13
-13
-12
-11
-11
-11
-12
-12
-12
-12
-11
-10
-10
-10
-10
-10
-10
-10
-10
-10
-11
-13
-12
-11
-11
-11
-11
-10
-10
-10
-8
-7
-6
-6
-5
-7
-9
-11
-11
-10
-9
-9
-8
-7
-8
-9
-9
-9
-9
-8
-7
-7
-7
-7
-6
-6
-7
-6
-5
-4
-4
-3
-2
-1
0
0
3
4
4
4
4
3
2
2
3
4
2
1
0
0
0
-1
-1
-2
-3
-4
-3
-3
-4
-5
-6
-8
-11
-11
-11
-10
-11
-11
-10
-10
-8
-6
-3
-1
-2
-5
-8
-14
-19
-19
-17
-14
-10
-13
-22
-35
-45
-46
-36
-19
-2
7
6
0
-9
-20
-33
-46
-55
-59
-57
-53
-46
-38
-29
-22
-15
-10
-5
-2
-3
-3
-2
-2
-2
-2
-2
-2
-2
-1
0
0
0
0
0
0
-2
-2
-2
-2
-2
-1
0
0
0
-1
-1
0
0
0
0
0
-1
0
0
0
0
0
0
0
0
-1
-1
0
1
2
3
2
1
2
3
3
2
1
1
2
2
3
2
2
1
2
3
3
3
2
3
4
3
3
4
4
5
5
7
6
6
6
8
9
11
13
14
14
13
13
12
13
13
14
16
16
15
13
12
11
11
11
10
9
9
9
8
7
5
4
3
2
1
1
1
1
0
0
0
0
1
5
9
11
10
8
2
-2
-6
-5
0
2
3
0
-12
-26
-32
-26
-14
3
16
21
18
11
1
-12
-26
-39
-47
-47
-43
-36
-27
-18
-10
-4
0
4
6
7
9
9
9
9
10
10
10
9
9
10
10
11
11
10
8
8
8
8
8
8
9
9
9
6
6
6
7
6
7
9
9
9
10
10
9
8
9
9
10
10
11
11
10
9
9
10
11
11
12
12
10
9
11
10
9
8
8
9
9
10
11
12
11
10
10
10
10
10
11
10
10
10
11
10
9
10
12
13
13
15
17
18
17
17
17
16
16
16
18
18
19
18
17
15
13
13
13
12
10
9
9
9
7
5
5
3
2
0
0
1
1
0
0
0
0
0
2
6
8
8
7
3
-2
-6
-7
-5
0
5
5
-1
-16
-30
-34
-28
-14
3
18
20
14
5
-3
-15
-32
-45
-53
-53
-49
-43
-35
-26
-17
-10
-5
-2
-1
0
1
3
3
4
5
5
4
5
5
5
5
3
3
2
1
1
1
0
0
0
0
0
0
1
1
2
1
1
1
0
1
1
2
1
0
0
0
2
3
4
3
3
2
2
3
4
6
5
6
6
5
6
6
7
4
2
2
1
0
0
1
2
1
0
0
0
0
0
2
3
3
3
2
2
1
1
1
2
2
3
5
7
8
9
10
10
9
8
8
8
8
8
8
7
4
2
3
4
5
4
4
2
1
0
-1
-1
-5
-7
-8
-8
-8
-8
-8
-8
-9
-10
-9
-8
-6
-2
1
1
-3
-9
-15
-18
-16
-11
-4
-3
-10
-27
-43
-49
-45
-30
-11
2
4
0
-8
-17
-30
-47
-60
-70
-72
-70
-66
-58
-49
-38
-28
-21
-17
-15
-12
-10
-10
-9
-9
-10
-10
-9
-9
-9
-9
-9
-9
-10
-10
-11
-10
-10
-11
-11
-10
-10
-11
-12
-11
-12
-11
-11
-10
-10
-10
-9
-9
-9
-10
-10
-10
-10
-10
-9
-8
-8
-9
-9
-9
-7
-6
-4
-3
-4
-5
-5
-4
-4
-4
-6
-5
-5
-6
-7
-7
-7
-9
-8
-8
-8
-9
-8
-7
-7
-8
-10
-9
-8
-7
-5
-5
-5
-4
-4
-3
-3
-3
-1
0
0
0
0
1
1
1
1
2
1
0
-1
0
-1
-4
-5
-5
-5
-7
-7
-6
-6
-7
-11
-13
-15
-16
-15
-15
-15
-17
-16
-14
-12
-11
-8
-5
-3
-5
-11
-17
-23
-26
-23
-15
-9
-9
-18
-34
-50
-56
-52
-36
-16
-1
4
0
-7
-16
-30
-45
-59
-71
-76
-75
-72
-65
-56
-42
-33
-27
-22
-17
-14
-13
-12
-11
-9
-8
-6
-6
-6
-8
-8
-7
-6
-7
-7
-7
-7
-8
-9
-11
-12
-12
-12
-10
-10
-11
-11
-9
-9
-9
-9
-7
-7
-8
-8
-8
-8
-8
-8
-8
-8
-9
-9
-8
-7
-7
-6
-7
-8
-8
-6
-4
-4
-5
-7
-7
-8
-7
-7
-7
-6
-7
-8
-7
-7
-7
-7
-5
-4
-4
-5
-6
-7
-7
-6
-5
-5
-6
-6
-4
-2
-1
1
4
5
5
4
4
4
4
4
4
5
3
0
-1
-1
-2
0
1
1
0
-1
-2
-4
-6
-6
-7
-8
-11
-12
-12
-11
-11
-10
-9
-9
-10
-8
-5
-3
-4
-7
-11
-17
-21
-22
-17
-11
-8
-11
-20
-34
-44
-46
-37
-20
-2
8
8
1
-8
-20
-33
-48
-60
-69
-70
-67
-61
-54
-43
-34
-26
-20
-15
-12
-9
-8
-7
-7
-8
-8
-8
-8
-7
-9
-11
-11
-10
-10
-9
-10
-12
-12
-12
-10
-10
-11
-11
-12
-12
-13
-13
-13
-13
-14
-14
-13
-14
-15
-15
-15
-15
-15
-14
-13
-12
-12
-12
-12
-13
-13
-13
-11
-11
-10
-10
-10
-11
-10
-10
-10
-11
-12
-11
-10
-9
-9
-9
-8
-8
-9
-9
-8
-8
-8
-8
-7
-7
-8
-8
-7
-5
-5
-3
-2
-1
0
2
5
4
4
3
3
2
2
2
2
1
-1
-2
-4
-5
-7
-7
-6
-6
-6
-7
-9
-13
-17
-18
-17
-16
-16
-14
-13
-13
-14
-14
-14
-13
-11
-8
-5
-4
-7
-16
-23
-25
-24
-20
-16
-15
-22
-34
-46
-51
-46
-29
-6
9
13
6
-2
-10
-22
-37
-53
-65
-68
-67
-61
-55
-49
-41
-30
-22
-16
-12
-11
-10
-10
-9
-9
-8
-8
-7
-6
-6
-7
-8
-7
-6
-7
-9
-10
-9
-8
-8
-8
-8
-9
-9
-10
-10
-9
-8
-7
-8
-9
-11
-10
-7
-6
-7
-9
-11
-11
-10
-7
-6
-7
-8
-6
-5
-4
-3
-2
-2
-3
-3
-1
0
-3
-5
-6
-3
-3
-3
-3
-3
-3
-4
-3
-2
-1
-1
-1
-1
-2
-1
-1
0
-1
-1
0
2
5
5
8
10
11
11
12
13
12
12
12
12
11
11
9
9
8
9
10
9
7
5
5
5
3
0
0
0
0
-1
-3
-4
-4
-2
-1
-1
-1
-1
1
3
5
3
0
-3
-8
-11
-12
-9
-5
0
0
-8
-23
-37
-38
-27
-7
11
21
18
7
-2
-11
-22
-36
-50
-59
-61
-59
-53
-44
-34
-25
-16
-9
-4
-3
-2
-1
1
2
4
6
5
2
0
0
1
2
2
2
3
2
1
0
0
1
2
3
2
1
0
1
2
2
0
0
1
1
0
1
3
3
2
2
2
3
2
2
1
2
3
5
7
7
4
4
4
4
4
3
4
5
6
7
5
3
2
3
4
3
2
2
3
2
2
1
1
0
1
3
6
8
8
10
11
13
14
14
15
14
13
13
14
14
14
14
11
9
7
9
12
12
11
9
8
7
5
2
0
-1
0
1
2
0
-1
-3
-3
-2
-1
0
0
1
4
4
3
0
-4
-10
-13
-11
-7
-4
-6
-13
-24
-37
-42
-37
-23
-5
13
19
14
4
-5
-15
-31
-44
-50
-53
-52
-52
-48
-41
-32
-23
-16
-10
-5
-1
0
0
0
0
1
1
1
3
3
2
1
1
1
0
0
2
3
1
0
-1
-1
0
-1
0
0
0
0
-1
-2
-2
-1
0
-1
-3
-3
-1
0
0
-1
-1
-1
-1
-2
-1
-1
0
0
0
0
0
-1
0
0
0
-1
-1
-1
-2
-3
-2
-1
-3
-2
-1
0
-1
-1
-1
-2
-1
-1
0
0
0
0
3
5
6
8
9
10
9
9
8
8
8
9
9
7
6
4
5
5
4
2
1
0
-1
-1
-2
-3
-5
-6
-7
-8
-9
-10
-11
-11
-10
-9
-8
-7
-6
-4
-4
-7
-13
-19
-22
-23
-19
-15
-12
-16
-27
-39
-47
-46
-35
-15
3
14
12
4
-3
-17
-32
-48
-58
-61
-61
-56
-54
-47
-38
-29
-20
-14
-10
-8
-8
-8
-6
-6
-6
-8
-8
-9
-8
-8
-8
-7
-7
-8
-9
-9
-9
-10
-10
-10
-10
-11
-12
-11
-11
-12
-12
-11
-10
-10
-10
-10
-10
-10
-10
-9
-8
-9
-9
-9
-8
-10
-10
-10
-11
-10
-8
-5
-4
-5
-4
-3
-2
-4
-6
-7
-7
-7
-6
-4
-5
-6
-6
-4
-4
-5
-5
-5
-4
-4
-3
-3
-2
-2
-1
-1
-1
0
2
7
9
9
7
7
6
5
5
7
9
7
6
4
3
2
1
1
0
-1
-1
1
1
0
-3
-5
-8
-10
-11
-11
-10
-11
-11
-9
-9
-8
-6
-2
0
-1
-4
-10
-17
-22
-22
-16
-9
-5
-10
-22
-39
-49
-47
-35
-15
2
10
7
0
-10
-22
-37
-52
-62
-68
-67
-61
-54
-44
-34
-24
-19
-14
-11
-8
-7
-6
-4
-4
-4
-4
-3
-3
-4
-5
-4
-4
-5
-5
-4
-4
-5
-3
-2
-1
-2
-2
-3
-3
-4
-5
-4
-4
-4
-4
-4
-4
-5
-4
-4
-3
-3
-3
-3
-2
-2
-4
-3
-2
-1
0
1
3
2
1
0
0
0
0
0
0
0
0
-1
-1
-1
-1
0
0
0
0
0
0
0
0
1
1
2
2
4
5
6
6
8
10
12
12
12
13
12
12
11
11
10
11
12
12
12
11
11
10
8
6
5
5
3
3
2
1
0
-1
-4
-5
-6
-7
-5
-4
-3
-3
-2
0
3
5
5
2
-3
-10
-14
-15
-11
-6
-2
-5
-18
-36
-50
-49
-38
-18
3
14
11
3
-5
-14
-29
-44
-56
-62
-63
-59
-53
-44
-35
-26
-17
-10
-7
-4
-2
0
0
0
0
0
1
1
1
1
0
-1
0
2
1
1
1
1
0
0
1
1
1
0
1
2
1
1
0
0
-1
-1
0
1
2
3
4
4
4
3
5
4
4
3
3
4
4
5
6
8
7
7
6
6
6
5
5
4
5
4
5
5
5
5
5
7
6
6
7
7
7
7
8
8
10
11
14
17
18
17
18
19
18
17
17
18
17
17
16
14
14
13
13
12
10
10
9
11
9
7
4
1
0
-2
-2
-1
-1
-2
-2
-1
-1
-1
0
3
5
5
2
-2
-8
-14
-16
-14
-10
-5
-6
-16
-32
-44
-47
-38
-21
-1
14
18
10
0
-11
-24
-40
-53
-61
-62
-59
-53
-43
-32
-23
-15
-10
-5
-3
-3
-2
-1
-1
-2
-1
0
0
0
0
0
0
-1
-1
-1
-2
-2
-2
-2
-2
-3
-3
-4
-5
-5
-4
-2
-3
-3
-2
-2
-2
-2
-2
-3
-2
-2
-1
0
-1
-2
-2
-2
-2
-2
-1
0
0
0
0
0
0
0
0
0
1
0
1
0
0
0
-1
0
0
0
0
0
0
0
0
1
2
1
2
5
8
11
13
16
14
13
12
12
12
12
13
14
14
12
9
9
9
9
9
8
6
5
4
3
1
0
-1
-3
-5
-6
-5
-5
-5
-6
-6
-5
-4
-3
0
4
3
0
-5
-12
-16
-17
-14
-8
-4
-5
-15
-31
-43
-45
-35
-15
4
15
15
8
-2
-13
-28
-41
-53
-59
-59
-54
-48
-40
-30
-19
-12
-8
-4
-2
-2
-2
-1
0
0
0
0
0
0
0
0
1
1
1
0
0
0
0
0
0
0
0
-1
-1
-2
0
0
1
0
0
0
0
0
0
0
0
1
1
2
3
2
1
1
2
2
2
2
4
4
4
3
3
3
2
3
2
2
2
2
3
3
3
2
3
2
1
2
3
3
3
4
4
4
4
6
8
11
13
13
14
14
13
13
13
14
13
13
12
12
10
8
9
8
7
5
4
3
2
2
2
0
-1
-2
-3
-4
-5
-5
-4
-3
-3
-2
-1
0
2
5
6
3
-2
-9
-14
-14
-12
-7
-2
-4
-16
-31
-41
-40
-28
-11
6
14
11
4
-2
-10
-23
-39
-49
-55
-56
-52
-45
-38
-29
-20
-12
-7
-3
0
2
3
2
2
2
2
3
4
4
3
3
3
3
3
3
3
2
2
1
2
2
1
0
1
2
3
3
3
2
1
1
3
5
4
4
4
4
3
1
2
4
5
4
4
5
5
6
6
7
7
6
6
5
4
4
6
5
4
3
4
5
4
4
4
5
4
4
5
5
5
5
5
5
6
8
12
15
15
15
15
15
13
13
13
13
13
13
13
12
11
9
8
9
7
6
4
4
4
4
3
2
0
-3
-4
-5
-6
-7
-5
-5
-5
-6
-6
-3
-1
0
0
-1
-5
-11
-15
-17
-15
-11
-7
-7
-14
-30
-44
-50
-45
-30
-11
5
12
8
0
-11
-24
-39
-53
-60
-62
-58
-52
-45
-37
-28
-20
-14
-11
-10
-8
-8
-8
-8
-6
-4
-4
-5
-6
-5
-5
-5
-6
-6
-6
-6
-7
-7
-8
-8
-8
-8
-8
-9
-9
-8
-9
-9
-8
-7
-8
-8
-7
-7
-7
-8
-7
-6
-5
-6
-6
-5
-5
-3
-4
-3
-3
-4
-3
-2
-2
-3
-4
-5
-5
-4
-4
-4
-4
-4
-5
-4
-3
-3
-3
-2
-2
-3
-2
-2
-2
-2
-1
1
1
2
4
6
7
8
8
7
7
6
5
5
4
5
4
3
1
0
0
0
-1
-1
-1
-1
-3
-5
-6
-8
-10
-11
-12
-13
-13
-13
-13
-13
-13
-11
-10
-8
-5
-4
-5
-8
-13
-20
-22
-21
-17
-13
-11
-16
-32
-49
-56
-51
-36
-13
3
9
5
-3
-14
-28
-46
-60
-70
-71
-67
-60
-51
-42
-33
-25
-18
-15
-13
-12
-10
-10
-10
-10
-9
-9
-9
-9
-9
-9
-9
-8
-8
-9
-9
-9
-9
-10
-10
-10
-10
-11
-11
-11
-10
-10
-10
-10
-9
-8
-8
-9
-8
-8
-9
-9
-9
-10
-10
-10
-10
-9
-11
-10
-9
-8
-8
-7
-5
-6
-6
-6
-5
-5
-7
-8
-8
-7
-8
-8
-8
-8
-8
-7
-6
-7
-7
-7
-6
-6
-6
-5
-4
-4
-2
0
3
5
6
6
6
6
6
5
5
4
4
5
4
1
0
0
0
1
0
-1
-1
-2
-5
-6
-5
-5
-6
-7
-9
-12
-14
-14
-13
-12
-13
-12
-12
-10
-5
-1
0
-4
-10
-17
-23
-25
-21
-14
-10
-11
-22
-41
-52
-53
-41
-22
-2
8
7
0
-9
-21
-36
-50
-62
-68
-67
-63
-54
-46
-37
-28
-20
-15
-12
-9
-8
-7
-7
-7
-8
-9
-9
-7
-6
-6
-7
-7
-6
-6
-6
-6
-5
-6
-7
-8
-7
-8
-9
-9
-9
-9
-8
-7
-7
-7
-8
-8
-7
-6
-5
-5
-5
-6
-7
-6
-6
-5
-5
-4
-3
-3
-2
-2
0
-1
-1
-3
-2
-1
-2
-2
-2
-2
-2
-2
-2
-3
-4
-4
-3
-4
-6
-6
-5
-4
-3
-2
-2
-2
-3
-2
0
1
2
4
6
7
7
7
7
7
7
7
7
7
6
5
1
0
-1
-1
-1
-1
-1
-2
-2
-3
-4
-5
-6
-6
-9
-9
-10
-10
-11
-11
-10
-8
-7
-8
-8
-6
-4
-4
-4
-7
-13
-18
-20
-18
-14
-10
-10
-19
-33
-47
-52
-43
-29
-9
4
6
0
-8
-18
-31
-47
-61
-67
-68
-63
-56
-47
-36
-28
-21
-16
-12
-9
-8
-7
-5
-4
-3
-3
-2
-3
-5
-6
-6
-6
-6
-6
-5
-4
-5
-5
-4
-4
-5
-5
-6
-7
-9
-7
-6
-5
-5
-6
-6
-7
-7
-6
-4
-3
-3
-3
-3
-3
-4
-4
-3
-2
-2
-2
-1
-1
-2
-3
-2
-2
-3
-3
-3
-3
-4
-4
-4
-3
-4
-4
-4
-3
-3
-4
-4
-5
-6
-5
-4
-3
-3
-3
-3
-5
-5
-3
-1
1
4
5
6
5
4
3
4
4
4
4
5
5
3
1
0
-1
-1
-1
-1
-1
-1
-2
-2
-3
-4
-6
-6
-6
-8
-9
-10
-11
-11
-11
-10
-9
-7
-4
-1
-1
-3
-8
-14
-19
-20
-16
-12
-11
-16
-29
-43
-53
-49
-36
-18
-1
4
1
-4
-13
-25
-39
-52
-61
-64
-63
-59
-54
-44
-33
-23
-16
-8
-2
0
0
0
0
2
4
4
6
5
5
3
3
3
2
3
5
5
4
4
4
4
3
3
4
4
5
6
6
6
4
5
6
7
6
6
7
7
7
7
8
7
6
7
8
10
10
10
10
10
10
11
11
11
9
9
8
8
8
9
10
10
9
10
9
9
8
10
10
10
9
9
9
10
11
11
12
12
12
12
14
17
17
19
18
18
18
20
21
20
20
19
19
18
16
15
15
16
15
15
15
14
12
13
14
12
11
9
8
7
7
6
5
5
5
5
6
7
9
12
15
15
13
8
3
-1
-2
0
3
6
6
-2
-16
-26
-26
-16
2
18
28
28
22
13
3
-10
-23
-34
-40
-40
-36
-29
-22
-11
-2
4
7
10
12
12
13
13
14
14
14
15
14
14
14
15
15
15
14
13
13
11
11
12
13
12
12
12
12
12
12
12
12
12
12
12
12
12
13
13
14
13
11
11
11
12
12
13
14
15
14
14
15
14
14
15
16
15
14
15
15
15
15
15
15
16
15
15
15
14
13
13
14
14
14
15
16
15
14
16
15
16
17
20
22
22
24
23
24
23
23
22
21
20
20
21
21
19
17
17
16
16
15
15
14
13
11
10
10
8
6
5
4
3
3
4
4
3
3
4
5
7
10
12
11
6
0
-3
-5
-5
0
5
7
0
-16
-30
-37
-32
-14
4
20
24
21
13
3
-9
-22
-34
-42
-45
-43
-39
-33
-25
-14
-5
1
3
3
1
0
2
3
3
2
3
5
8
9
6
5
2
0
-3
-4
-4
-5
-6
-5
-3
-1
-1
-3
-5
-8
-9
-8
-5
-4
-4
-4
-5
-5
-5
-5
-6
-7
-7
-9
-10
-11
-12
-11
-11
-10
-8
-6
-4
-2
-2
-3
-6
-9
-11
-10
-5
-3
-5
-9
-13
-15
-17
-17
-15
-12
-10
-10
-9
-9
-9
-10
-10
-11
-12
-11
-9
-7
-9
-11
-10
-7
-4
-1
0
0
0
0
0
-2
-8
-11
-11
-9
-9
-8
-8
-8
-9
-9
-10
-12
-13
-14
-15
-17
-20
-22
-24
-24
-24
-22
-21
-20
-23
-26
-27
-27
-26
-23
-18
-18
-21
-26
-33
-39
-44
-44
-41
-35
-33
-40
-52
-65
-71
-63
-42
-22
-6
-3
-8
-16
-27
-41
-59
-75
-84
-89
-85
-79
-69
-58
-46
-38
-32
-28
-27
-27
-27
-26
-26
-27
-28
-29
-27
-27
-25
-25
-25
-26
-27
-26
-26
-27
-28
-28
-28
-28
-29
-29
-28
-29
-30
-29
-27
-26
-27
-26
-25
-24
-24
-25
-27
-30
-30
-28
-26
-25
-25
-25
-24
-24
-23
-22
-22
-22
-23
-23
-21
-21
-22
-23
-24
-25
-26
-25
-24
-23
-23
-24
-24
-24
-25
-26
-26
-26
-27
-27
-26
-26
-26
-26
-25
-24
-23
-22
-20
-18
-16
-14
-13
-12
-13
-14
-13
-12
-13
-13
-13
-12
-12
-14
-15
-17
-18
-18
-18
-19
-21
-22
-22
-22
-24
-27
-28
-29
-29
-30
-29
-29
-30
-32
-33
-31
-30
-28
-26
-23
-23
-25
-29
-34
-40
-45
-47
-44
-41
-41
-48
-60
-74
-80
-75
-58
-38
-18
-8
-9
-18
-28
-38
-53
-66
-77
-83
-83
-82
-77
-69
-58
-46
-36
-29
-24
-22
-21
-19
-17
-15
-15
-15
-13
-12
-12
-11
-11
-11
-12
-12
-12
-12
-13
-13
-12
-12
-13
-12
-11
-11
-12
-12
-11
-11
-11
-10
-9
-9
-10
-10
-9
-8
-8
-8
-8
-8
-9
-9
-8
-8
-7
-6
-5
-5
-4
-3
-4
-5
-6
-6
-5
-5
-4
-3
-3
-3
-3
-3
-3
-3
-4
-3
-3
-3
-3
-3
-3
-3
-3
-2
-1
-1
-1
-1
0
3
5
8
10
11
11
10
10
9
8
8
9
10
11
10
9
8
7
6
6
6
5
5
6
6
5
4
2
1
0
-1
-2
-3
-3
-3
-2
-1
0
2
6
7
6
4
0
-4
-9
-11
-10
-8
-6
-9
-17
-30
-41
-40
-28
-10
8
22
25
20
10
-2
-16
-33
-45
-53
-53
-49
-43
-33
-22
-13
-5
2
6
7
7
8
9
11
11
11
11
11
12
11
12
11
11
11
12
12
11
11
11
11
10
11
11
10
10
10
11
10
10
10
12
13
11
12
12
12
11
12
13
12
12
13
14
14
13
14
15
16
17
18
18
17
16
17
17
16
15
15
15
15
15
16
16
15
15
16
16
16
16
16
16
16
17
18
19
18
18
20
22
23
25
27
29
29
28
28
27
27
26
26
27
26
26
24
21
19
19
20
20
20
19
21
21
20
19
18
18
14
12
10
10
9
10
12
12
13
12
14
17
19
19
17
14
8
3
1
2
4
7
7
0
-13
-26
-31
-22
-5
16
35
39
33
23
11
-2
-19
-33
-40
-43
-40
-33
-23
-12
-2
5
11
14
15
15
15
16
17
18
19
19
18
17
18
17
17
17
18
19
18
17
16
17
16
16
15
15
15
14
15
15
15
14
14
15
16
17
16
16
15
16
15
16
16
15
16
17
17
16
17
18
19
20
19
19
18
18
19
20
19
19
20
20
18
17
18
18
18
17
18
18
17
17
17
18
18
19
20
20
18
18
21
23
25
27
28
29
28
29
28
29
28
28
27
27
27
26
26
23
22
21
22
21
19
19
18
19
18
17
15
14
12
9
8
8
7
8
9
10
8
8
12
16
18
18
15
10
2
-3
-3
0
4
7
5
-7
-24
-33
-30
-17
2
21
31
30
21
11
-1
-17
-34
-48
-53
-50
-43
-33
-22
-12
-5
1
4
4
4
6
7
9
10
9
10
10
9
8
8
8
7
8
8
8
7
6
6
5
4
3
3
2
2
3
4
4
3
5
7
8
6
4
3
0
0
2
5
6
7
7
6
5
6
7
8
9
9
11
11
10
10
10
9
7
7
6
6
6
6
6
5
5
6
8
8
8
7
7
7
6
6
7
7
6
7
9
12
14
13
14
14
15
17
18
20
19
19
19
19
17
14
13
11
11
10
12
10
9
8
9
9
6
5
4
3
0
-1
-2
-3
-4
-3
-2
-2
-3
-2
0
3
6
8
6
1
-6
-13
-17
-18
-15
-9
-6
-12
-28
-45
-52
-43
-26
-2
15
20
11
2
-7
-19
-37
-53
-63
-66
-64
-56
-47
-36
-28
-17
-10
-5
-3
-2
-1
-1
-1
0
1
0
-1
0
0
0
0
0
0
-1
-2
-1
-1
-1
-2
-2
-2
-3
-3
-3
-3
-3
-3
-2
-2
-3
-5
-5
-4
-3
-2
-2
-2
-3
-3
-2
-1
-2
-1
-1
0
1
0
0
0
0
0
0
1
0
0
0
2
1
1
1
2
1
0
0
-1
-1
-1
0
0
0
0
0
0
0
1
2
2
1
1
4
7
9
10
10
9
8
9
9
9
8
8
9
9
7
4
4
4
4
3
2
1
1
1
1
0
-2
-5
-6
-7
-7
-8
-8
-9
-9
-9
-8
-7
-5
-1
1
0
-4
-11
-18
-24
-26
-24
-19
-17
-21
-32
-48
-58
-57
-43
-20
1
12
11
2
-6
-17
-31
-47
-60
-68
-71
-68
-62
-53
-43
-32
-23
-17
-11
-7
-4
-4
-4
-3
-2
-2
-4
-4
-4
-3
-2
-1
0
-1
-1
-2
-2
-3
-3
-2
0
-1
-2
-3
-5
-5
-5
-4
-3
-3
-3
-2
-1
-1
-2
-3
-3
-2
-2
-1
0
0
-1
-2
-2
-2
-2
0
1
3
3
2
0
-1
-1
0
1
1
-1
-1
-1
-1
-3
-2
-1
-2
-2
-1
0
0
0
0
0
0
-1
-1
0
2
4
5
8
8
9
10
11
11
11
11
10
10
11
11
11
10
8
7
7
6
6
6
6
5
4
5
5
4
1
0
-2
-3
-5
-5
-5
-6
-7
-6
-4
-5
-4
-1
1
2
0
-3
-10
-18
-24
-26
-23
-21
-21
-27
-40
-53
-59
-50
-30
-7
11
19
14
3
-9
-24
-40
-55
-65
-69
-67
-63
-55
-43
-32
-23
-16
-10
-6
-4
-4
-2
-1
-1
-3
-5
-4
-3
-2
-1
1
1
-1
-2
-3
-3
-4
-4
-2
-1
-4
-7
-9
-10
-9
-6
-3
-3
-4
-5
-4
-4
-4
-2
-2
-3
-5
-7
-6
-5
-4
-3
-1
0
0
2
2
0
-1
-1
0
0
0
1
3
3
4
3
3
1
-1
-3
-1
0
-1
-1
0
0
1
1
0
0
1
2
3
2
1
0
2
4
6
9
12
13
12
12
11
10
9
9
10
11
11
10
8
5
2
1
0
0
0
0
0
0
-3
-5
-7
-9
-11
-13
-14
-13
-13
-13
-13
-12
-13
-12
-9
-6
-6
-9
-14
-20
-27
-32
-33
-31
-29
-29
-36
-50
-64
-70
-61
-43
-22
-4
3
-1
-8
-17
-30
-45
-64
-75
-83
-83
-80
-74
-63
-52
-41
-32
-24
-18
-16
-17
-16
-14
-13
-12
-11
-11
-12
-14
-15
-15
-15
-15
-14
-14
-14
-14
-15
-16
-16
-17
-17
-15
-13
-14
-14
-15
-17
-18
-19
-19
-19
-19
-18
-19
-19
-21
-20
-19
-19
-20
-21
-20
-19
-17
-16
-15
-14
-14
-14
-14
-14
-14
-14
-14
-14
-15
-16
-16
-16
-16
-16
-16
-15
-17
-18
-18
-18
-18
-17
-16
-16
-17
-16
-15
-15
-16
-16
-15
-14
-12
-9
-6
-5
-6
-6
-6
-7
-9
-9
-9
-9
-9
-9
-9
-10
-11
-12
-13
-14
-14
-14
-15
-17
-21
-24
-27
-29
-29
-29
-28
-27
-28
-28
-28
-27
-25
-21
-19
-21
-26
-33
-40
-46
-49
-47
-45
-46
-53
-65
-79
-84
-77
-59
-35
-16
-6
-8
-14
-25
-38
-55
-70
-81
-87
-88
-88
-84
-77
-66
-54
-43
-34
-28
-25
-24
-23
-21
-21
-20
-19
-18
-17
-19
-20
-20
-20
-20
-20
-20
-19
-20
-20
-21
-20
-20
-20
-19
-19
-20
-20
-20
-20
-20
-20
-20
-19
-19
-19
-18
-17
-18
-18
-19
-20
-20
-19
-18
-18
-18
-18
-17
-16
-15
-15
-16
-17
-19
-18
-17
-16
-16
-15
-15
-17
-19
-20
-20
-19
-20
-19
-18
-18
-18
-17
-16
-16
-16
-15
-12
-11
-12
-13
-12
-11
-9
-5
-2
0
0
-2
-2
-2
-3
-4
-4
-4
-4
-4
-3
-4
-4
-5
-6
-8
-9
-8
-7
-8
-11
-12
-14
-16
-18
-18
-17
-17
-17
-16
-14
-13
-12
-10
-10
-10
-13
-17
-22
-29
-33
-33
-31
-29
-30
-38
-52
-65
-68
-54
-32
-9
8
14
9
0
-14
-32
-48
-61
-69
-71
-71
-67
-61
-48
-36
-25
-16
-9
-5
-3
-2
-1
1
3
3
2
3
3
4
5
6
5
5
6
6
7
7
7
5
4
4
4
5
4
5
5
7
7
7
7
5
4
4
5
7
8
9
7
7
7
8
9
10
9
10
11
12
12
11
10
9
8
9
10
10
9
9
9
10
11
11
11
13
14
14
15
14
12
11
11
11
11
12
14
15
15
16
17
19
19
19
22
24
26
27
26
26
25
25
25
25
24
26
28
28
25
23
23
22
21
20
20
20
20
22
21
19
15
11
9
9
10
11
13
15
17
18
19
21
20
19
15
12
7
4
2
2
2
2
3
1
-7
-18
-25
-23
-13
4
26
39
39
33
22
9
-5
-21
-34
-41
-41
-35
-28
-18
-7
4
14
18
19
19
20
22
23
24
26
28
28
26
28
27
25
23
23
26
26
28
26
24
22
24
27
27
24
22
22
22
23
22
23
24
24
26
27
26
23
22
24
25
25
24
25
25
25
25
28
29
28
26
26
27
29
31
32
31
28
24
25
26
28
27
27
26
26
27
27
27
26
26
28
29
28
27
27
27
29
30
31
30
29
28
31
34
34
36
37
38
38
39
42
41
38
34
34
32
32
32
33
34
32
31
30
29
28
28
28
27
25
23
22
20
19
19
20
22
20
18
17
17
20
25
28
28
25
19
13
8
7
9
11
11
9
3
-7
-15
-17
-6
14
35
47
48
42
31
18
1
-15
-27
-31
-28
-23
-16
-8
2
12
19
22
24
24
22
22
23
25
27
28
28
26
26
25
25
25
25
25
22
19
17
17
19
21
20
20
20
21
21
19
17
17
18
19
18
17
16
16
17
18
18
18
18
18
18
16
17
18
20
20
20
19
18
16
16
17
18
19
19
20
19
18
17
15
15
15
17
18
16
14
14
15
15
15
15
16
15
15
17
17
17
15
16
18
19
21
22
24
23
22
21
23
25
22
21
19
19
19
19
19
18
17
16
16
14
13
13
16
17
14
11
9
7
3
1
2
2
3
3
4
5
5
6
8
9
9
9
8
4
-2
-7
-7
-4
-1
1
0
-9
-23
-33
-31
-20
-3
15
26
27
19
10
0
-14
-28
-39
-44
-44
-42
-36
-28
-18
-11
-4
1
4
3
2
1
2
3
4
5
4
4
5
6
4
2
2
3
5
5
4
4
2
0
0
1
2
0
-3
-6
-8
-8
-6
-3
-2
-2
-3
-4
-4
-5
-5
-3
-1
-1
-2
-2
-1
2
5
5
1
-4
-7
-7
-4
-4
-5
-5
-5
-5
-5
-5
-6
-5
-5
-4
-3
-3
-3
-3
-3
-2
-1
-2
-3
-5
-8
-10
-12
-12
-11
-9
-7
-7
-7
-7
-5
-3
-1
-1
0
1
1
1
0
-1
-3
-4
-3
-2
-3
-4
-4
-5
-6
-7
-7
-7
-9
-10
-10
-9
-10
-13
-19
-23
-25
-24
-22
-20
-18
-17
-17
-16
-15
-12
-11
-12
-15
-21
-26
-29
-27
-24
-19
-17
-21
-32
-47
-56
-58
-50
-32
-12
0
1
-2
-9
-18
-34
-50
-65
-74
-76
-73
-65
-58
-48
-38
-29
-24
-21
-20
-19
-17
-15
-14
-15
-17
-18
-16
-14
-13
-14
-15
-15
-16
-17
-17
-17
-17
-18
-18
-17
-17
-18
-18
-18
-19
-19
-19
-18
-18
-18
-17
-16
-17
-17
-18
-18
-19
-19
-18
-17
-17
-16
-13
-10
-8
-8
-8
-9
-15
-20
-22
-20
-18
-18
-18
-19
-19
-20
-20
-20
-19
-18
-19
-19
-19
-18
-17
-16
-15
-14
-15
-18
-20
-20
-19
-16
-16
-14
-14
-12
-11
-11
-10
-10
-7
-3
0
-2
-8
-14
-17
-17
-15
-13
-13
-13
-14
-13
-11
-9
-10
-12
-12
-13
-14
-17
-17
-18
-19
-21
-23
-24
-25
-25
-24
-21
-20
-22
-22
-19
-16
-14
-16
-19
-22
-27
-31
-32
-31
-29
-27
-29
-38
-53
-64
-65
-55
-39
-20
-6
-5
-14
-26
-34
-45
-59
-74
-83
-85
-85
-80
-74
-64
-52
-42
-34
-28
-24
-23
-23
-25
-26
-25
-21
-18
-17
-20
-21
-20
-20
-19
-18
-17
-16
-17
-19
-19
-20
-21
-21
-19
-17
-18
-18
-17
-16
-16
-17
-16
-17
-16
-16
-16
-16
-15
-14
-13
-14
-15
-15
-13
-13
-14
-15
-14
-15
-15
-15
-14
-13
-13
-12
-12
-12
-13
-13
-13
-13
-13
-13
-11
-11
-12
-13
-12
-11
-9
-8
-7
-7
-8
-9
-7
-5
-5
-9
-12
-14
-13
-9
-4
-2
-3
-4
-4
-4
-5
-6
-5
-3
-2
-2
-3
-4
-5
-6
-5
-4
-5
-5
-3
-3
-5
-8
-11
-13
-15
-17
-18
-18
-18
-20
-19
-16
-13
-11
-10
-11
-12
-13
-13
-15
-20
-26
-29
-28
-25
-21
-19
-23
-35
-46
-52
-46
-35
-19
-2
4
0
-9
-17
-25
-37
-52
-64
-69
-71
-68
-63
-54
-46
-36
-28
-22
-17
-12
-9
-8
-9
-9
-8
-9
-10
-13
-13
-13
-14
-14
-14
-14
-13
-12
-11
-10
-9
-9
-7
-6
-6
-8
-10
-13
-16
-18
-18
-17
-17
-15
-14
-15
-17
-18
-18
-19
-19
-18
-18
-18
-19
-18
-17
-16
-15
-14
-15
-17
-18
-16
-14
-15
-16
-18
-19
-19
-19
-18
-17
-18
-20
-20
-19
-18
-17
-16
-14
-14
-14
-14
-15
-16
-15
-13
-13
-16
-19
-19
-17
-13
-11
-10
-11
-12
-12
-11
-9
-9
-9
-10
-10
-11
-13
-14
-13
-12
-12
-11
-10
-11
-14
-16
-16
-16
-17
-21
-27
-31
-33
-31
-30
-29
-28
-27
-26
-25
-24
-23
-21
-21
-23
-26
-30
-34
-36
-36
-34
-33
-36
-45
-55
-61
-57
-45
-26
-7
0
-2
-10
-20
-33
-48
-64
-75
-80
-78
-71
-63
-54
-44
-33
-26
-22
-18
-15
-16
-16
-14
-12
-11
-9
-5
-1
-1
-5
-12
-17
-19
-17
-15
-14
-14
-14
-14
-14
-14
-14
-13
-13
-12
-12
-12
-12
-12
-10
-9
-6
-6
-7
-9
-11
-14
-15
-14
-14
-16
-17
-17
-14
-13
-11
-10
-8
-7
-6
-6
-7
-8
-9
-7
-5
-5
-7
-10
-12
-13
-11
-10
-10
-11
-12
-11
-10
-9
-8
-7
-6
-6
-5
-2
-2
-3
-1
4
8
7
4
0
0
0
0
0
0
0
1
2
2
1
0
0
0
0
1
0
-1
-3
-3
-3
-5
-7
-11
-12
-13
-14
-15
-14
-14
-14
-13
-11
-9
-6
-3
-2
-3
-8
-15
-19
-19
-17
-13
-10
-11
-20
-36
-49
-52
-44
-26
-4
9
11
5
-3
-12
-25
-41
-56
-65
-68
-62
-55
-46
-38
-29
-20
-13
-10
-10
-10
-9
-7
-7
-5
-3
-2
-2
-1
0
0
1
2
4
5
1
-4
-8
-9
-8
-6
-4
-4
-6
-6
-5
-6
-5
-2
0
1
2
2
0
-1
-3
-3
-3
-3
-3
-1
0
0
0
0
2
3
3
2
2
1
0
0
0
2
3
4
3
2
3
3
1
-1
-1
0
1
2
3
3
3
3
2
2
1
0
0
1
4
5
7
9
13
14
14
14
13
13
13
13
13
15
16
16
15
14
13
11
9
5
5
7
9
8
4
2
0
0
-1
-2
-2
-2
-2
-1
1
2
3
6
8
8
4
2
0
-3
-11
-15
-14
-10
-5
-4
-12
-27
-38
-39
-30
-13
5
19
20
12
3
-3
-15
-32
-51
-61
-61
-54
-45
-32
-20
-10
-4
0
0
0
-1
-1
0
1
2
3
4
5
6
5
5
5
5
6
6
7
6
5
4
5
4
5
5
3
2
2
2
3
3
4
5
5
5
6
7
7
7
9
9
8
5
3
3
3
4
5
6
5
4
5
5
4
4
5
7
7
8
8
9
9
9
11
12
11
9
8
8
7
7
8
9
9
10
12
16
18
19
19
21
22
21
21
20
18
17
18
19
19
20
22
22
18
15
14
16
17
17
17
16
16
14
13
12
11
10
9
9
9
7
5
4
3
1
1
2
7
11
12
8
5
0
-4
-8
-8
-3
3
7
1
-13
-28
-36
-33
-21
0
16
23
18
8
1
-8
-22
-38
-53
-60
-61
-55
-45
-34
-23
-13
-6
-4
-3
0
3
6
8
9
9
9
9
9
9
8
6
6
5
6
7
9
10
9
8
8
10
9
7
4
4
4
5
6
6
7
8
9
11
10
10
11
14
13
12
9
8
6
5
6
7
9
9
9
9
10
9
10
10
9
9
10
11
10
9
11
12
13
11
11
11
12
13
12
10
6
3
5
9
10
12
15
17
19
18
19
19
20
19
18
18
17
17
18
18
17
15
14
13
13
13
14
14
12
9
7
6
4
1
0
0
1
-1
-3
-4
-3
-2
0
1
4
6
7
4
0
-6
-13
-16
-15
-11
-6
-5
-12
-26
-40
-45
-42
-31
-13
4
13
11
4
-2
-10
-23
-37
-51
-59
-62
-58
-49
-41
-33
-25
-16
-10
-6
-5
-5
-4
-1
4
7
6
6
8
7
3
0
0
5
10
12
9
3
0
0
1
2
2
3
3
3
3
2
3
5
7
7
7
7
5
1
-4
-3
0
4
7
5
0
-5
-7
-7
-6
-6
-7
-5
-4
-3
-2
-2
-2
-2
-2
-1
0
0
0
0
1
0
0
-1
-4
-5
-6
-5
-5
-3
-2
-1
0
0
4
10
15
15
13
11
6
3
0
-1
0
1
2
3
2
1
1
2
5
6
4
1
0
-2
-4
-7
-8
-8
-10
-14
-18
-21
-20
-18
-16
-17
-16
-14
-10
-8
-10
-12
-16
-20
-25
-26
-22
-19
-17
-20
-30
-48
-70
-80
-75
-59
-36
-15
-6
-8
-16
-25
-35
-51
-67
-82
-87
-84
-79
-69
-59
-50
-44
-36
-29
-23
-20
-18
-17
-18
-18
-18
-16
-15
-15
-14
-13
-15
-16
-15
-14
-14
-14
-11
-9
-10
-15
-21
-22
-21
-20
-20
-21
-22
-22
-20
-20
-21
-22
-22
-20
-19
-17
-15
-15
-20
-24
-26
-24
-23
-24
-26
-27
-25
-25
-23
-23
-24
-24
-23
-23
-24
-25
-24
-24
-24
-24
-24
-25
-26
-27
-26
-25
-26
-26
-23
-19
-18
-20
-22
-22
-18
-13
-8
-9
-14
-18
-19
-19
-18
-16
-13
-10
-10
-12
-16
-19
-20
-19
-18
-19
-20
-20
-19
-19
-21
-23
-26
-31
-36
-37
-36
-33
-31
-28
-27
-29
-32
-33
-33
-30
-27
-28
-32
-38
-46
-49
-49
-47
-48
-51
-59
-73
-82
-84
-74
-56
-35
-19
-13
-19
-30
-40
-53
-68
-82
-89
-90
-90
-86
-84
-77
-68
-58
-46
-38
-33
-31
-30
-29
-28
-28
-26
-24
-24
-24
-23
-21
-20
-21
-23
-23
-23
-23
-23
-23
-23
-24
-24
-23
-21
-22
-23
-23
-23
-23
-23
-21
-21
-21
-21
-21
-21
-22
-23
-22
-22
-22
-22
-22
-22
-23
-23
-21
-22
-21
-20
-18
-16
-15
-14
-16
-19
-24
-28
-28
-26
-23
-22
-21
-20
-20
-21
-22
-23
-25
-25
-23
-21
-20
-20
-19
-17
-14
-10
-5
-1
-3
-7
-10
-10
-9
-10
-13
-16
-17
-16
-15
-13
-13
-13
-13
-14
-16
-17
-15
-15
-16
-19
-20
-22
-24
-24
-24
-23
-20
-15
-10
-12
-19
-24
-24
-23
-24
-24
-27
-31
-37
-39
-38
-36
-35
-38
-45
-57
-62
-61
-50
-31
-14
-3
-2
-9
-18
-27
-40
-55
-71
-82
-82
-80
-74
-68
-58
-47
-37
-25
-18
-16
-16
-16
-16
-15
-13
-11
-10
-12
-13
-13
-11
-11
-12
-12
-10
-10
-10
-11
-12
-14
-13
-12
-11
-11
-12
-12
-14
-15
-13
-12
-10
-10
-11
-10
-11
-10
-11
-10
-9
-9
-8
-7
-4
-3
-5
-9
-12
-14
-14
-12
-9
-8
-10
-9
-9
-9
-8
-8
-6
-6
-6
-5
-4
-5
-6
-7
-7
-7
-7
-6
-6
-5
-3
-1
0
0
-1
0
6
11
13
9
4
0
0
2
4
4
3
3
3
3
2
1
1
0
0
0
0
0
0
1
0
0
-3
-6
-8
-10
-9
-7
-4
-5
-5
-5
-5
-4
-2
0
-1
-6
-12
-17
-20
-23
-23
-21
-20
-22
-29
-38
-44
-42
-32
-13
4
15
16
11
2
-9
-25
-40
-52
-59
-59
-55
-48
-40
-30
-18
-9
-2
1
3
4
4
5
7
9
8
6
5
7
7
8
9
10
10
9
7
7
7
7
9
9
7
5
5
7
7
6
5
6
6
7
9
7
5
5
6
6
7
8
10
10
8
8
9
11
12
12
12
10
9
8
9
9
8
7
6
6
5
6
7
9
9
9
8
8
8
8
9
7
7
7
9
11
10
8
9
10
10
11
12
15
16
17
17
16
16
16
18
18
19
19
18
16
13
13
14
14
13
12
12
12
13
12
10
6
3
1
0
0
1
2
2
3
3
1
2
4
6
7
8
8
7
2
-4
-8
-10
-8
-3
0
-3
-12
-22
-28
-28
-19
-3
15
25
23
15
4
-8
-22
-37
-47
-50
-49
-44
-37
-27
-18
-9
-1
4
7
9
12
14
15
15
15
15
15
14
14
15
14
13
13
13
12
12
12
13
14
14
15
15
15
15
16
16
14
14
14
15
16
17
17
15
14
13
13
12
12
13
15
16
15
14
14
15
14
14
14
15
16
17
19
18
16
15
16
16
16
15
16
17
16
16
16
17
16
15
16
17
19
19
21
20
18
16
17
20
21
23
24
25
24
24
25
25
25
23
23
23
24
23
21
21
21
22
21
20
18
18
20
21
20
17
16
13
11
10
9
9
9
10
12
12
11
11
11
13
16
16
15
12
8
3
0
0
0
1
1
-1
-9
-19
-24
-22
-10
5
23
33
31
22
13
2
-9
-23
-36
-41
-41
-38
-31
-21
-10
-2
5
10
15
15
16
17
17
16
16
17
17
18
17
15
15
14
14
14
14
14
14
15
15
15
15
15
14
13
12
13
14
13
13
14
14
14
14
15
15
16
15
15
14
13
13
15
16
15
14
13
13
13
15
16
17
16
13
12
11
11
10
12
13
14
14
15
16
15
15
15
15
14
14
15
15
14
14
17
17
17
17
21
25
26
28
28
28
27
27
28
27
26
25
25
25
27
25
23
23
23
22
21
20
20
21
21
20
16
15
15
13
12
12
13
14
14
14
13
14
13
15
19
21
19
15
12
7
3
1
3
7
8
5
-2
-12
-19
-16
-6
10
27
37
39
32
22
10
-2
-15
-26
-32
-32
-29
-23
-14
-3
5
10
14
18
20
21
21
22
23
22
23
22
23
23
23
21
19
17
18
19
19
17
16
16
14
13
14
15
15
15
15
15
16
16
16
17
18
17
15
14
12
11
11
12
13
13
13
14
13
13
13
13
13
12
12
13
12
12
12
12
12
12
12
11
11
10
10
10
10
10
8
8
8
9
9
9
8
7
8
9
10
10
11
13
16
17
17
17
16
16
15
15
15
15
14
14
13
11
10
10
10
9
7
6
5
4
2
1
0
-1
-2
-3
-3
-3
-3
-3
-2
-2
-2
-1
-1
0
0
2
3
0
-4
-9
-14
-17
-16
-15
-12
-13
-21
-34
-45
-48
-40
-22
-2
13
15
9
2
-8
-19
-33
-46
-53
-57
-54
-50
-43
-35
-25
-15
-8
-4
-1
0
1
1
2
3
4
5
6
6
5
4
4
4
4
3
4
5
5
4
3
3
3
3
3
3
3
2
3
4
5
4
4
5
5
5
5
6
4
3
3
4
5
6
8
8
8
6
4
3
4
5
6
7
6
6
6
6
5
3
4
4
5
4
5
6
6
6
4
4
4
3
3
5
5
5
5
5
5
6
8
11
14
15
15
15
14
12
10
10
10
10
11
13
13
13
12
9
7
4
4
5
5
4
3
2
0
-3
-5
-8
-9
-8
-4
-4
-4
-6
-7
-6
-6
-4
-3
-2
-4
-8
-13
-19
-23
-23
-21
-18
-20
-28
-43
-54
-58
-51
-32
-9
6
11
6
-2
-10
-23
-36
-50
-60
-65
-67
-62
-58
-50
-41
-31
-23
-18
-14
-10
-8
-7
-6
-5
-6
-7
-7
-7
-7
-8
-7
-6
-6
-6
-7
-7
-7
-7
-7
-7
-6
-5
-5
-6
-6
-7
-7
-7
-7
-7
-7
-5
-5
-5
-6
-7
-6
-8
-7
-5
-4
-4
-5
-3
-4
-4
-4
-3
-3
-3
-2
-2
-2
-3
-3
-2
-1
-2
-2
-1
0
0
-2
-2
-3
-4
-3
-4
-3
-3
-1
0
0
0
0
-1
-1
0
1
3
6
8
8
9
9
9
10
10
10
8
7
6
5
4
4
5
4
4
4
4
3
0
-1
-2
-1
-3
-5
-6
-7
-8
-9
-7
-7
-6
-7
-6
-7
-6
-3
0
2
-1
-6
-12
-17
-20
-20
-18
-16
-16
-21
-33
-44
-50
-45
-32
-12
7
17
16
9
-2
-18
-35
-47
-55
-58
-59
-57
-54
-44
-33
-22
-15
-10
-6
-3
-2
-2
-2
-3
-4
-4
-2
-3
-4
-3
-1
-2
-4
-4
-5
-4
-4
-2
-1
-1
-2
-5
-6
-8
-10
-9
-7
-5
-5
-6
-6
-6
-7
-8
-7
-6
-5
-5
-4
-4
-6
-8
-9
-7
-6
-5
-4
-5
-7
-8
-8
-7
-6
-5
-3
-2
-3
-6
-6
-6
-8
-8
-6
-5
-4
-4
-4
-6
-8
-9
-8
-5
-3
-1
1
1
-1
-4
-5
-4
-1
3
6
8
6
5
3
1
0
0
1
1
1
0
0
-1
-4
-4
-4
-4
-4
-3
-2
-1
-1
-4
-6
-9
-12
-17
-18
-17
-16
-15
-15
-15
-15
-14
-10
-6
-5
-7
-10
-16
-23
-28
-30
-28
-26
-24
-24
-31
-45
-54
-52
-42
-23
-4
8
10
4
-5
-17
-32
-47
-59
-64
-63
-61
-59
-52
-43
-32
-24
-18
-13
-12
-13
-13
-12
-11
-11
-9
-6
-5
-6
-9
-13
-14
-12
-9
-10
-13
-15
-15
-12
-11
-11
-13
-13
-14
-12
-11
-11
-12
-13
-12
-12
-12
-14
-12
-9
-7
-9
-13
-15
-15
-15
-14
-13
-12
-11
-10
-9
-8
-9
-7
-6
-5
-7
-8
-8
-8
-9
-10
-11
-11
-12
-12
-11
-10
-10
-10
-9
-9
-9
-10
-10
-11
-11
-10
-8
-6
-5
-5
-7
-7
-5
0
1
2
1
-1
-2
-3
-2
-1
0
-2
-5
-8
-11
-11
-11
-10
-8
-7
-8
-7
-7
-9
-12
-15
-16
-17
-19
-20
-19
-20
-23
-25
-26
-26
-24
-22
-19
-18
-16
-16
-17
-23
-29
-34
-35
-33
-29
-25
-25
-35
-50
-60
-61
-53
-33
-12
0
-1
-8
-15
-24
-37
-53
-68
-76
-77
-73
-65
-56
-47
-38
-30
-24
-23
-25
-25
-24
-22
-20
-18
-17
-17
-17
-17
-18
-20
-23
-23
-22
-23
-23
-22
-21
-20
-20
-21
-21
-22
-22
-21
-20
-20
-20
-20
-19
-21
-22
-22
-22
-21
-22
-21
-22
-22
-21
-21
-20
-20
-19
-18
-17
-18
-19
-18
-17
-17
-16
-15
-13
-13
-13
-14
-12
-11
-12
-15
-17
-19
-20
-19
-17
-17
-18
-17
-16
-15
-15
-13
-12
-13
-13
-12
-12
-11
-10
-7
-4
-3
-1
1
3
1
-2
-2
-3
-3
-3
-3
-5
-7
-9
-9
-8
-8
-8
-8
-8
-9
-11
-11
-14
-16
-18
-19
-18
-18
-18
-19
-18
-17
-18
-18
-17
-15
-12
-10
-11
-14
-20
-27
-31
-31
-26
-21
-18
-25
-39
-49
-49
-42
-27
-7
5
5
-1
-8
-17
-30
-46
-60
-68
-69
-66
-59
-48
-38
-27
-18
-12
-9
-9
-8
-7
-5
-4
-5
-6
-7
-6
-5
-5
-5
-4
-4
-4
-5
-7
-8
-8
-7
-6
-6
-6
-7
-8
-9
-10
-9
-7
-5
-3
-4
-6
-6
-6
-5
-4
-3
-4
-5
-6
-7
-8
-7
-5
-3
-2
-4
-3
-1
0
0
0
0
-3
-6
-7
-6
-5
-5
-4
-4
-5
-5
-6
-6
-6
-6
-7
-5
-5
-5
-6
-4
-3
0
1
1
0
-2
-1
3
6
7
6
6
6
5
5
4
4
3
3
4
4
3
4
4
4
2
2
5
7
5
0
-5
-6
-6
-6
-7
-7
-8
-8
-9
-9
-9
-8
-6
-4
-1
0
0
-1
-6
-12
-16
-18
-16
-10
-6
-10
-21
-33
-39
-34
-21
-4
11
17
12
4
-3
-12
-25
-38
-48
-54
-53
-47
-38
-31
-22
-14
-9
-8
-8
-6
-4
-4
-4
-3
-2
-1
-1
0
0
0
0
0
-1
-2
-2
-1
0
0
0
-1
-3
-4
-4
-4
-5
-6
-5
-4
-5
-6
-6
-5
-5
-5
-3
-2
-3
-3
-5
-5
-6
-5
-4
-3
-3
-4
-3
-2
-2
-4
-4
-2
-1
0
-1
-3
-4
-4
-4
-2
-1
-2
-2
-2
-2
-2
-2
-1
-2
-3
-2
0
0
1
2
3
3
4
6
7
7
6
6
7
6
6
8
9
9
8
6
6
4
4
4
3
2
0
1
3
2
0
-1
-3
-6
-8
-9
-8
-8
-8
-7
-6
-5
-5
-4
-1
0
0
0
-1
-10
-18
-22
-19
-14
-11
-11
-19
-32
-42
-43
-35
-19
-1
13
16
8
0
-9
-23
-38
-53
-58
-59
-55
-48
-39
-29
-22
-14
-8
-4
-4
-6
-8
-8
-8
-6
-5
-5
-5
-6
-6
-7
-7
-7
-6
-6
-7
-7
-6
-5
-5
-5
-4
-6
-8
-9
-8
-8
-7
-7
-7
-8
-10
-11
-11
-10
-10
-8
-7
-7
-7
-6
-4
-5
-7
-9
-7
-5
-5
-5
-5
-4
-5
-5
-5
-6
-6
-7
-7
-8
-7
-6
-5
-5
-6
-4
-1
0
0
-2
-4
-6
-5
-4
-3
-3
-2
0
2
3
4
5
6
7
7
7
7
7
8
10
10
6
2
0
0
0
0
0
0
0
0
1
0
-1
-4
-6
-7
-7
-8
-7
-7
-7
-8
-7
-7
-6
-3
1
3
0
-7
-15
-21
-24
-21
-17
-12
-11
-18
-30
-43
-46
-41
-27
-5
14
21
16
4
-7
-19
-34
-49
-61
-66
-62
-56
-45
-35
-25
-16
-10
-8
-6
-6
-6
-5
-4
-3
-5
-5
-4
-2
-3
-3
-3
-2
-1
-1
-2
-2
-2
-2
-2
-3
-4
-5
-6
-6
-5
-5
-5
-5
-5
-6
-6
-6
-5
-5
-3
-1
-1
-2
-4
-5
-5
-4
-2
-1
0
-1
-1
-1
0
0
0
0
0
0
0
0
1
0
-3
-3
-2
-2
-2
-1
-2
-3
-3
0
0
0
0
1
3
3
1
0
2
6
10
12
12
10
10
11
12
11
9
7
7
8
7
4
2
1
2
3
5
3
2
1
2
0
-2
-5
-8
-10
-11
-10
-10
-12
-13
-12
-10
-9
-7
-3
0
0
-2
-5
-13
-19
-21
-19
-14
-11
-13
-24
-37
-48
-49
-37
-19
-1
10
9
1
-8
-20
-35
-51
-66
-72
-70
-62
-51
-40
-28
-21
-17
-14
-11
-10
-9
-10
-9
-8
-8
-6
-5
-4
-5
-4
-3
-2
-3
-2
-1
-2
-4
-6
-5
-5
-5
-4
-3
-5
-8
-9
-8
-8
-9
-10
-10
-9
-7
-6
-4
-4
-6
-6
-5
-5
-6
-6
-7
-7
-6
-4
-2
-2
-3
-4
-4
-4
-5
-6
-5
-5
-6
-7
-8
-8
-8
-7
-6
-6
-6
-6
-6
-6
-5
-3
-1
-4
-6
-6
-4
-3
-3
0
2
5
7
8
7
4
0
0
1
1
2
3
3
1
0
0
-1
-2
-4
-5
-5
-4
-3
-5
-7
-10
-13
-14
-14
-13
-14
-15
-15
-16
-15
-13
-9
-5
-3
-5
-9
-17
-26
-31
-32
-28
-24
-22
-25
-37
-53
-61
-55
-41
-22
-3
5
2
-7
-18
-29
-45
-62
-75
-81
-80
-76
-67
-55
-46
-38
-30
-23
-18
-14
-13
-13
-14
-12
-10
-10
-10
-10
-9
-8
-10
-12
-13
-12
-12
-11
-11
-11
-12
-12
-11
-10
-9
-10
-10
-9
-11
-13
-13
-11
-12
-13
-15
-16
-15
-15
-13
-11
-10
-10
-10
-10
-11
-12
-11
-8
-7
-8
-11
-13
-14
-12
-10
-10
-11
-12
-11
-11
-11
-12
-12
-11
-11
-11
-11
-10
-9
-9
-9
-9
-9
-10
-10
-9
-6
-7
-6
-5
-4
-2
0
2
1
2
2
2
1
1
2
3
3
0
-2
-4
-6
-7
-6
-5
-5
-6
-8
-9
-12
-15
-16
-17
-16
-16
-15
-14
-14
-14
-13
-11
-9
-6
-6
-9
-15
-22
-29
-33
-32
-29
-27
-26
-32
-46
-61
-64
-58
-40
-16
2
8
3
-6
-14
-25
-40
-56
-68
-74
-73
-69
-61
-52
-42
-31
-21
-15
-11
-9
-9
-8
-8
-7
-6
-4
0
2
1
-4
-7
-7
-4
-3
-3
-4
-3
-3
-3
-3
-4
-4
-3
-2
-3
-5
-5
-6
-5
-5
-4
-4
-5
-6
-5
-3
-3
-4
-4
-4
-3
-3
-3
-4
-5
-4
-3
-1
0
1
1
0
-1
-1
0
0
0
-2
-3
-1
0
0
1
1
0
-1
-1
-1
0
0
3
7
7
6
5
7
8
11
15
17
19
19
16
13
12
14
16
18
16
13
12
11
10
9
9
9
9
10
10
9
6
3
1
0
-1
-1
-1
0
-1
-3
-4
-4
-2
1
6
7
5
-1
-8
-14
-18
-16
-10
-6
-7
-15
-29
-41
-43
-32
-11
10
22
22
15
7
-1
-15
-32
-46
-54
-56
-52
-46
-37
-28
-17
-9
-2
3
8
9
7
4
2
3
4
7
10
12
13
10
8
6
4
4
5
5
5
6
5
4
2
1
2
3
5
5
6
5
4
5
8
9
6
3
2
3
7
10
9
4
0
0
1
2
3
6
8
8
8
8
9
8
6
7
7
9
9
8
7
6
7
7
7
6
5
5
5
6
6
7
10
12
13
14
14
14
16
18
21
20
19
18
17
18
16
16
16
15
14
14
13
11
11
10
11
11
13
13
12
8
4
2
1
0
1
3
3
0
-2
-1
-1
-1
0
1
4
3
1
-4
-11
-16
-17
-14
-10
-9
-13
-22
-34
-40
-36
-23
-3
14
21
19
12
1
-14
-32
-47
-60
-64
-62
-55
-46
-32
-19
-9
-4
-2
0
1
0
0
0
2
2
2
3
5
5
7
6
3
0
-2
0
0
0
1
2
2
2
1
0
0
0
0
0
0
1
2
3
2
0
0
0
1
0
-3
-4
-3
-1
1
3
4
2
2
2
3
2
0
0
0
2
3
4
3
1
0
1
2
2
2
4
5
3
0
0
0
4
6
8
6
2
1
2
5
8
11
14
14
13
12
13
12
11
11
13
14
11
7
5
6
6
7
6
4
2
1
2
2
1
0
-3
-5
-7
-9
-11
-11
-12
-12
-11
-9
-8
-5
0
2
-1
-8
-16
-23
-27
-24
-19
-14
-15
-23
-37
-48
-50
-42
-26
-9
4
8
4
-5
-17
-32
-49
-65
-74
-74
-68
-59
-50
-40
-29
-21
-15
-12
-10
-9
-8
-5
-2
-3
-5
-7
-8
-8
-8
-7
-5
-4
-5
-7
-7
-9
-10
-10
-9
-8
-7
-5
-5
-7
-9
-9
-8
-7
-7
-7
-6
-7
-6
-4
-3
-4
-5
-5
-3
-3
-3
-1
0
-1
-3
-5
-5
-4
-3
-1
0
-1
-2
-2
-2
-1
1
4
3
0
-4
-4
-2
0
1
0
0
0
0
0
0
1
0
3
5
8
12
16
16
13
12
13
13
11
11
13
14
13
11
8
6
5
6
9
10
8
5
4
3
2
1
-1
-3
-5
-6
-5
-3
-4
-5
-5
-6
-6
-2
3
5
3
0
-7
-15
-22
-22
-18
-14
-10
-11
-21
-35
-48
-50
-39
-20
-2
10
10
4
-5
-15
-28
-43
-57
-65
-67
-64
-58
-49
-38
-27
-19
-13
-9
-7
-5
-3
-1
-1
-1
0
3
5
4
0
-3
-3
-2
0
2
2
0
0
0
0
0
1
1
0
-2
-8
-11
-10
-8
-6
-4
-3
-4
-3
-3
-3
-4
-5
-5
-6
-4
-4
-4
-5
-5
-5
-5
-3
-4
-4
-3
-2
-2
-4
-3
-3
-2
-1
-1
-2
-6
-8
-7
-4
-4
-4
-4
-5
-6
-6
-4
-1
2
3
3
3
4
4
6
8
10
9
10
13
12
8
5
5
6
7
8
8
8
9
11
13
11
7
4
3
1
0
-1
-1
-2
-5
-6
-6
-5
-7
-6
-4
-2
-3
-2
0
1
-1
-6
-9
-11
-14
-15
-15
-13
-12
-14
-20
-32
-42
-45
-36
-19
0
14
17
10
0
-10
-21
-36
-50
-62
-66
-66
-60
-49
-39
-28
-19
-11
-6
-5
-6
-6
-5
-3
0
1
0
-1
-4
-4
0
2
2
0
0
0
0
1
2
2
1
1
1
1
0
0
0
1
2
1
0
-1
-1
0
1
1
0
-2
-3
-1
0
-1
-3
-4
-3
-2
0
0
0
-1
0
1
1
1
0
0
0
2
2
1
0
-1
-2
-1
-1
-1
-1
-1
-1
-1
0
0
0
0
3
5
6
7
9
11
13
13
13
12
10
8
7
8
8
8
7
5
4
2
1
0
1
1
3
3
0
-2
-3
-4
-8
-10
-12
-11
-11
-11
-8
-9
-10
-9
-5
-2
-2
-6
-9
-13
-20
-26
-28
-25
-22
-20
-24
-36
-49
-55
-52
-36
-15
4
14
13
4
-7
-22
-40
-56
-70
-75
-72
-65
-52
-40
-27
-18
-12
-7
-5
-6
-5
-4
-2
-1
0
1
1
-1
-3
-3
-4
-4
-4
-3
-2
-2
-3
-3
-4
-5
-6
-6
-5
-5
-5
-4
-5
-6
-6
-6
-5
-6
-6
-7
-5
-5
-4
-4
-4
-5
-5
-5
-5
-5
-4
-3
-3
-2
-2
-2
-1
-1
-1
0
0
0
-2
-2
-3
-4
-5
-5
-5
-5
-4
-2
0
0
0
0
0
0
0
1
3
5
8
10
11
12
13
14
14
11
10
9
10
9
7
5
5
5
4
5
3
1
1
1
1
0
-2
-3
-4
-6
-5
-5
-6
-7
-9
-9
-9
-7
-3
0
1
-2
-7
-12
-18
-22
-24
-20
-16
-15
-22
-34
-45
-51
-43
-25
-4
13
19
14
5
-7
-22
-39
-56
-66
-69
-65
-57
-47
-33
-22
-13
-8
-5
-1
0
0
0
2
2
2
1
2
3
4
4
6
5
4
3
3
4
3
3
4
4
2
2
2
1
1
1
2
2
1
1
2
3
2
2
2
2
1
0
2
3
3
4
5
4
3
4
7
9
8
7
7
8
7
7
7
6
5
5
7
7
7
5
5
5
6
6
7
8
7
7
8
9
9
9
11
13
16
20
22
22
20
19
18
19
17
17
18
18
17
17
17
15
14
13
13
12
11
11
11
12
10
8
5
2
0
0
2
2
2
2
3
1
2
5
10
12
9
5
0
-7
-12
-14
-10
-4
-1
-4
-14
-27
-36
-33
-19
0
17
25
21
13
2
-9
-25
-41
-53
-58
-54
-46
-36
-25
-15
-7
-1
3
6
8
8
8
8
8
7
7
9
8
8
8
8
8
8
10
9
10
8
8
7
6
7
7
8
8
7
5
5
5
6
7
7
8
7
7
6
5
5
5
6
6
6
6
6
5
4
5
6
7
6
6
5
6
6
6
4
1
1
2
4
4
4
3
2
2
3
4
3
3
2
2
2
3
4
4
4
4
6
9
11
12
13
13
12
11
9
9
9
9
10
9
8
6
4
4
4
4
3
4
5
5
2
0
-2
-4
-5
-5
-5
-5
-4
-5
-6
-6
-5
-2
1
2
0
-4
-10
-17
-20
-21
-20
-18
-16
-19
-28
-40
-48
-45
-32
-13
5
11
5
-4
-12
-22
-37
-54
-66
-70
-68
-63
-55
-44
-34
-25
-18
-12
-9
-7
-5
-4
-3
-4
-4
-4
-3
-4
-5
-5
-4
-3
-3
-2
-3
-3
-3
-2
-2
-5
-5
-5
-6
-7
-8
-7
-8
-8
-7
-5
-4
-4
-4
-4
-6
-9
-9
-8
-7
-8
-9
-9
-10
-9
-9
-8
-8
-8
-8
-8
-8
-9
-8
-8
-8
-9
-10
-9
-8
-9
-10
-9
-9
-9
-9
-8
-8
-9
-10
-10
-10
-11
-10
-9
-8
-9
-9
-7
-6
-3
0
3
3
2
1
1
2
0
0
0
-1
-2
-4
-5
-6
-5
-3
-2
-2
-4
-6
-7
-8
-9
-10
-9
-11
-13
-14
-14
-13
-15
-15
-15
-14
-14
-13
-11
-8
-9
-12
-17
-22
-28
-30
-29
-26
-25
-28
-37
-50
-58
-56
-44
-24
-7
3
4
-3
-12
-21
-33
-47
-61
-68
-69
-67
-63
-55
-45
-34
-25
-16
-11
-7
-6
-5
-4
-3
-1
-2
-2
-2
-2
-2
-1
-2
-3
-3
-4
-3
-3
-3
-3
-3
-4
-4
-2
-1
-2
-2
-2
-1
-3
-4
-5
-4
-4
-2
0
0
-1
-1
-1
-2
-4
-5
-4
-4
-3
-2
-1
0
0
1
1
1
0
-1
-1
-2
-2
-2
-2
-2
-2
-2
0
0
0
0
0
0
0
0
0
0
-1
-2
0
1
2
3
2
3
4
7
11
12
11
10
8
7
7
5
6
7
9
7
5
4
3
2
0
0
0
2
3
2
0
-1
-2
-3
-5
-6
-7
-6
-5
-4
-4
-5
-6
-5
-1
2
2
0
-5
-10
-16
-20
-19
-17
-15
-15
-21
-30
-41
-45
-38
-22
-3
12
19
14
4
-8
-22
-37
-51
-59
-59
-56
-50
-41
-30
-20
-12
-4
0
0
0
1
3
4
4
3
4
3
2
2
2
3
3
4
4
2
0
0
2
2
2
2
2
2
1
0
0
0
1
2
3
3
2
2
4
4
4
2
2
2
3
4
7
7
4
3
3
5
5
6
9
10
11
11
10
8
7
7
8
10
10
9
9
9
9
10
10
10
10
10
11
12
13
14
14
15
15
16
16
19
22
25
25
24
23
22
24
23
22
21
22
23
22
19
17
17
15
14
11
9
9
9
10
9
7
5
3
2
2
1
0
0
-1
0
1
2
2
4
8
7
5
0
-6
-14
-17
-16
-14
-10
-10
-17
-28
-41
-47
-40
-23
-3
14
20
18
9
-2
-18
-36
-51
-59
-61
-57
-51
-43
-33
-22
-13
-6
-3
-1
0
-1
-1
-1
-1
-1
-1
0
0
-1
-2
-2
-2
-2
-2
-2
-1
-1
-3
-3
-4
-4
-5
-7
-7
-7
-7
-6
-5
-5
-6
-6
-6
-7
-8
-8
-7
-6
-7
-7
-7
-7
-8
-8
-8
-6
-6
-5
-5
-4
-5
-7
-6
-8
-9
-8
-6
-6
-6
-7
-7
-6
-6
-6
-7
-8
-8
-7
-5
-6
-7
-8
-7
-6
-6
-5
-3
-1
-1
0
0
2
2
2
4
5
5
4
4
3
2
1
3
3
1
-1
-1
-1
-2
-3
-4
-3
-3
-4
-5
-7
-9
-11
-12
-12
-13
-14
-13
-13
-13
-14
-15
-15
-13
-10
-6
-4
-6
-10
-16
-22
-26
-25
-22
-18
-18
-26
-40
-55
-59
-53
-36
-13
4
7
1
-9
-23
-38
-56
-68
-74
-75
-69
-63
-52
-41
-29
-20
-15
-13
-11
-9
-9
-9
-8
-7
-6
-6
-7
-7
-8
-8
-8
-7
-8
-7
-7
-6
-7
-7
-7
-7
-8
-7
-8
-8
-8
-9
-9
-8
-7
-7
-6
-6
-5
-5
-5
-5
-5
-4
-3
-3
-4
-5
-4
-2
-1
-1
-1
-1
-1
-1
-1
0
-1
-1
-2
-2
-3
-3
-2
-2
-3
-3
-2
-2
-2
-2
-1
-1
-2
-1
0
0
0
0
1
1
1
2
5
8
11
11
12
11
11
10
11
10
9
9
9
8
6
4
4
3
2
1
2
3
2
1
0
0
-2
-3
-5
-6
-6
-6
-5
-6
-6
-5
-4
-3
-1
1
4
5
1
-3
-8
-14
-15
-11
-4
-1
-2
-14
-29
-39
-38
-23
-4
11
18
15
7
-1
-15
-31
-46
-56
-58
-55
-49
-41
-33
-22
-13
-7
-3
0
1
2
1
1
0
-1
-1
0
0
0
0
0
0
0
0
-1
-1
-1
-2
-2
-1
-2
-2
-2
0
-1
-1
-1
0
0
0
0
0
0
0
1
2
2
1
1
2
1
2
2
3
2
2
3
3
3
3
3
3
2
2
2
2
1
0
0
1
0
0
0
0
0
-1
0
0
0
-1
-1
0
-1
0
0
1
1
1
2
3
4
6
8
9
8
7
8
8
7
5
6
7
7
6
4
2
1
1
2
2
1
0
-1
-2
-2
-2
-3
-4
-6
-7
-8
-8
-9
-9
-6
-5
-4
-5
-3
0
2
1
-1
-6
-13
-18
-18
-15
-10
-7
-10
-21
-36
-47
-47
-36
-20
-3
5
2
-6
-16
-28
-43
-57
-68
-71
-69
-63
-55
-44
-34
-27
-20
-16
-13
-12
-10
-11
-10
-10
-9
-8
-8
-9
-9
-8
-9
-10
-10
-9
-9
-10
-10
-10
-9
-10
-10
-10
-11
-11
-12
-11
-11
-12
-12
-12
-11
-11
-11
-10
-10
-11
-11
-11
-11
-11
-12
-11
-11
-11
-10
-9
-9
-9
-10
-9
-9
-9
-9
-10
-11
-11
-11
-11
-11
-12
-12
-12
-13
-14
-13
-12
-12
-13
-13
-13
-13
-14
-13
-12
-11
-10
-9
-9
-8
-7
-5
-3
-1
-1
-1
-1
-1
-1
0
0
0
-1
-3
-5
-7
-8
-8
-8
-7
-9
-9
-10
-11
-12
-12
-12
-15
-18
-19
-19
-18
-18
-18
-18
-18
-18
-17
-15
-13
-12
-13
-17
-22
-28
-31
-31
-28
-25
-24
-30
-45
-60
-65
-59
-43
-23
-8
-5
-12
-20
-29
-42
-57
-70
-78
-80
-78
-74
-68
-60
-50
-40
-31
-24
-21
-19
-17
-16
-17
-17
-16
-15
-14
-14
-13
-13
-14
-14
-14
-15
-15
-15
-14
-13
-15
-16
-15
-15
-15
-16
-15
-15
-15
-14
-13
-14
-14
-14
-14
-14
-15
-14
-14
-15
-16
-16
-15
-14
-14
-14
-13
-13
-13
-13
-13
-13
-13
-13
-12
-12
-13
-14
-14
-15
-15
-15
-13
-13
-13
-13
-14
-14
-14
-14
-14
-13
-14
-13
-11
-10
-10
-9
-6
-6
-4
-2
0
0
0
0
0
0
0
0
0
0
0
-1
-2
-3
-4
-4
-4
-4
-5
-6
-7
-8
-10
-11
-12
-13
-14
-15
-14
-15
-16
-15
-14
-14
-14
-12
-10
-7
-7
-10
-13
-18
-24
-28
-28
-26
-24
-22
-26
-39
-52
-59
-53
-38
-19
0
8
5
-4
-16
-29
-44
-59
-67
-70
-68
-64
-56
-44
-33
-24
-16
-12
-9
-9
-9
-8
-8
-7
-6
-4
-3
-4
-4
-4
-5
-6
-5
-5
-4
-5
-4
-4
-5
-6
-7
-6
-5
-5
-6
-6
-6
-6
-5
-4
-4
-3
-1
0
1
0
-1
-1
0
0
0
1
2
2
2
3
3
4
5
5
6
6
5
5
4
4
2
3
4
4
3
3
2
0
0
0
2
3
4
5
6
6
6
7
7
5
4
7
11
13
14
15
16
16
17
17
17
16
15
15
15
14
12
12
13
14
13
11
8
5
4
5
6
4
2
0
0
-2
-4
-5
-4
-4
-4
-4
-3
-4
-2
0
3
3
1
-2
-7
-12
-16
-15
-14
-13
-15
-23
-35
-46
-50
-44
-28
-9
4
10
7
0
-8
-20
-35
-49
-59
-63
-62
-58
-52
-42
-31
-22
-15
-9
-6
-5
-5
-4
-2
0
0
0
0
0
0
0
0
0
0
0
0
0
-1
-1
-1
0
-1
-1
-1
-1
-1
-1
0
0
0
3
5
4
0
-2
-3
-4
-5
-5
-5
-5
-5
-4
-3
-3
-2
-2
-1
0
0
1
0
0
0
0
0
-2
-1
-2
-2
-4
-5
-5
-4
-4
-3
-3
-3
-3
-2
-1
-2
-3
-3
-3
-1
0
1
4
7
8
8
9
10
9
8
8
8
8
7
8
8
6
5
4
4
4
3
3
2
0
0
1
0
-2
-5
-7
-8
-8
-6
-6
-6
-7
-8
-7
-5
-3
0
1
-1
-7
-14
-20
-24
-23
-19
-16
-16
-23
-38
-50
-53
-45
-28
-6
8
14
10
3
-6
-21
-37
-50
-58
-60
-59
-53
-45
-35
-24
-14
-8
-6
-3
-2
-2
-3
-3
-2
-1
0
0
1
0
0
-1
-1
-2
-1
-1
0
-1
-2
-2
-2
-2
-3
-2
-2
-3
-5
-5
-4
-4
-4
-4
-4
-5
-3
-2
-1
-3
-5
-5
-4
-4
-4
-4
-2
-2
-1
0
0
-1
-2
-2
0
0
-1
0
-1
-1
-1
-1
1
0
0
-1
0
-1
0
0
0
0
0
1
2
2
2
3
6
8
10
12
14
15
15
15
15
14
14
15
16
15
13
13
12
11
11
11
10
8
8
8
9
10
9
7
5
5
2
2
2
2
2
2
3
2
2
2
7
10
10
9
6
1
-5
-10
-10
-6
-3
-1
-5
-17
-32
-40
-37
-23
-2
18
28
26
17
6
-7
-22
-36
-48
-51
-49
-43
-34
-24
-13
-5
0
4
7
8
9
10
10
10
10
11
12
12
12
14
14
13
11
10
10
10
10
10
10
11
11
12
12
10
8
8
8
9
10
11
11
11
12
12
13
12
12
12
14
14
13
14
14
15
16
16
16
16
18
19
19
18
17
15
15
15
15
17
18
17
16
16
18
18
17
17
17
16
16
17
18
17
18
19
20
22
24
27
26
26
26
26
26
26
27
25
25
23
24
24
23
23
23
25
24
22
19
18
17
18
19
17
15
12
10
9
9
8
8
8
8
9
9
10
12
12
14
13
11
6
2
-1
-2
-1
0
0
-5
-19
-33
-40
-36
-21
-1
17
23
16
9
1
-9
-24
-39
-49
-55
-55
-48
-41
-32
-23
-12
-4
-2
-1
0
1
1
2
4
5
6
7
8
8
6
5
5
6
7
7
8
8
8
9
9
8
6
4
3
3
2
3
5
5
5
4
4
4
4
4
6
7
5
5
4
4
3
2
3
2
2
2
3
2
2
3
4
4
3
4
5
7
7
7
5
0
-4
-6
-5
-3
-3
-5
-6
-7
-6
-5
-3
-2
-1
0
1
1
1
2
3
4
5
7
9
10
11
13
12
6
-1
-5
-5
-4
-4
-5
-5
-6
-6
-5
-3
-4
-6
-10
-13
-17
-19
-20
-19
-18
-15
-12
-10
-12
-14
-12
-8
-9
-12
-17
-27
-35
-39
-37
-35
-35
-38
-48
-62
-73
-73
-60
-41
-20
-6
-4
-10
-17
-26
-38
-53
-66
-75
-80
-81
-80
-73
-61
-48
-35
-27
-22
-22
-21
-19
-16
-14
-13
-14
-17
-21
-24
-24
-22
-19
-19
-19
-17
-16
-15
-15
-14
-14
-14
-16
-17
-19
-19
-17
-12
-9
-11
-15
-19
-22
-22
-22
-22
-22
-23
-24
-23
-22
-22
-22
-22
-20
-17
-16
-16
-16
-17
-19
-19
-17
-14
-12
-14
-18
-23
-26
-26
-21
-15
-12
-12
-17
-23
-26
-24
-21
-19
-17
-17
-21
-23
-22
-21
-19
-19
-20
-18
-14
-12
-10
-9
-8
-7
-8
-8
-7
-2
1
-2
-13
-25
-28
-25
-19
-17
-17
-19
-21
-21
-21
-20
-20
-21
-23
-25
-26
-27
-27
-25
-24
-25
-28
-28
-27
-25
-25
-25
-27
-30
-36
-42
-44
-45
-42
-39
-42
-53
-66
-73
-69
-56
-40
-22
-10
-9
-15
-24
-35
-49
-64
-78
-85
-85
-81
-72
-63
-52
-41
-30
-24
-22
-20
-16
-15
-18
-20
-19
-17
-17
-17
-17
-17
-19
-19
-18
-15
-13
-12
-9
-8
-10
-11
-11
-11
-16
-20
-21
-19
-16
-15
-13
-12
-13
-14
-13
-12
-11
-10
-8
-7
-8
-8
-9
-11
-13
-12
-8
-5
-5
-6
-4
-1
-1
-6
-11
-13
-13
-11
-9
-6
-4
-2
-3
-5
-7
-6
-3
1
5
2
-4
-11
-11
-8
-3
0
0
-2
-1
1
5
8
10
11
11
10
13
15
18
19
17
13
8
5
3
3
2
3
7
6
4
2
3
3
2
3
2
0
-4
-6
-7
-8
-9
-7
-5
-6
-5
-1
2
2
0
-6
-13
-16
-16
-13
-10
-9
-16
-29
-42
-49
-44
-31
-10
10
21
19
11
-2
-17
-34
-46
-53
-57
-58
-53
-45
-35
-24
-14
-9
-4
0
5
7
5
3
2
3
2
3
4
5
6
7
9
8
9
9
11
11
9
7
6
8
11
15
13
8
3
-1
-1
2
4
5
6
6
6
6
7
8
9
12
14
13
8
5
4
6
9
11
12
10
8
6
6
5
6
8
10
12
14
15
15
15
14
12
8
5
7
10
11
11
9
11
12
14
13
15
18
22
27
28
28
26
24
23
23
24
24
24
24
23
20
19
18
17
15
14
16
17
19
19
17
15
11
8
8
6
4
4
4
5
5
5
6
6
5
5
5
3
0
-6
-9
-10
-8
-4
-3
-8
-19
-29
-30
-23
-8
8
21
22
16
8
0
-13
-29
-46
-53
-55
-51
-42
-30
-20
-10
-2
3
5
5
6
9
12
11
11
11
11
12
12
13
12
10
7
7
8
10
10
12
12
8
7
8
10
11
12
13
12
10
9
8
6
4
5
7
8
8
8
10
12
12
11
8
6
4
5
8
10
10
9
10
11
11
10
8
9
9
11
12
12
9
8
9
7
6
6
8
10
11
12
11
10
6
6
7
10
12
16
21
24
26
25
24
19
14
12
11
12
13
14
15
15
14
14
15
13
12
13
14
14
12
9
6
3
1
0
-1
-2
-4
-5
-4
-2
-1
0
3
4
5
6
7
3
-4
-13
-17
-17
-16
-12
-9
-15
-29
-40
-41
-33
-16
3
16
17
10
2
-6
-18
-35
-50
-59
-60
-54
-43
-32
-24
-16
-9
-3
2
4
3
-1
-3
-2
0
1
0
0
1
3
3
3
6
8
7
4
4
3
4
3
2
0
-1
-2
-1
0
1
1
0
0
1
4
5
4
2
1
2
1
1
2
4
3
0
-1
-1
0
1
2
2
2
3
4
5
3
3
4
7
9
9
8
5
2
0
0
0
1
2
2
2
1
0
1
4
7
9
12
13
13
13
15
16
15
13
12
14
16
17
16
12
7
4
6
7
7
4
4
4
4
2
2
3
3
0
-4
-6
-6
-6
-5
-4
-6
-7
-7
-7
-4
-1
1
0
-4
-13
-22
-26
-23
-16
-7
-8
-22
-39
-48
-47
-36
-18
1
13
12
4
-6
-20
-36
-54
-66
-70
-67
-61
-55
-46
-35
-25
-17
-14
-14
-13
-10
-7
-5
-6
-5
-4
-3
-5
-6
-7
-7
-5
-4
-6
-10
-11
-11
-11
-10
-10
-8
-7
-8
-10
-11
-11
-11
-9
-7
-6
-6
-7
-7
-8
-9
-10
-11
-8
-6
-7
-12
-16
-15
-14
-11
-9
-8
-8
-9
-10
-11
-10
-7
-4
-6
-10
-12
-13
-13
-16
-16
-15
-14
-15
-15
-14
-17
-18
-17
-15
-14
-13
-12
-11
-9
-10
-10
-10
-6
-4
-2
-2
-2
-3
-6
-9
-10
-9
-6
-4
-4
-6
-8
-8
-8
-8
-8
-9
-10
-10
-10
-9
-10
-13
-17
-18
-19
-22
-24
-23
-22
-22
-23
-24
-23
-21
-18
-17
-22
-29
-36
-40
-40
-38
-33
-29
-31
-42
-58
-68
-67
-55
-36
-16
-7
-10
-19
-28
-37
-52
-69
-85
-94
-94
-93
-84
-74
-60
-49
-38
-31
-26
-23
-20
-21
-23
-23
-20
-17
-16
-16
-18
-20
-22
-23
-21
-20
-20
-18
-17
-16
-17
-17
-18
-21
-24
-25
-24
-23
-22
-22
-21
-22
-23
-22
-20
-20
-20
-20
-20
-21
-20
-18
-18
-18
-17
-12
-8
-11
-19
-26
-29
-27
-23
-20
-20
-21
-24
-24
-23
-22
-21
-20
-20
-20
-19
-19
-20
-21
-22
-20
-17
-14
-14
-14
-15
-14
-11
-8
-8
-11
-14
-14
-12
-11
-10
-9
-8
-8
-7
-5
-3
-4
-5
-7
-9
-12
-13
-12
-10
-9
-6
-7
-10
-15
-17
-15
-17
-23
-28
-27
-25
-25
-25
-25
-24
-22
-18
-15
-15
-17
-22
-30
-37
-39
-36
-30
-29
-37
-51
-64
-70
-64
-48
-27
-7
0
-3
-11
-20
-30
-45
-61
-72
-80
-80
-77
-69
-60
-49
-37
-30
-25
-21
-14
-11
-9
-9
-8
-6
-3
-2
-2
-4
-5
-5
-4
-4
-6
-6
-6
-6
-6
-4
-2
-3
-5
-6
-5
-3
-3
-4
-3
-2
-2
0
2
6
9
8
3
-3
-8
-10
-9
-7
-5
-3
-2
-1
-2
-1
-1
0
-1
0
1
1
1
2
3
2
1
1
1
1
1
2
2
2
2
3
4
4
4
4
5
6
7
7
7
8
11
14
17
18
18
19
19
18
18
18
17
17
18
17
17
16
16
16
15
14
14
16
17
16
14
12
11
8
7
6
7
8
7
8
8
9
9
11
14
16
14
11
8
1
-2
-1
2
5
5
0
-11
-24
-29
-23
-7
12
28
35
34
27
19
7
-6
-21
-32
-36
-36
-32
-25
-16
-4
5
11
17
20
22
22
23
24
25
26
26
27
27
26
27
27
28
27
27
28
28
27
27
28
27
27
26
27
28
28
29
28
28
28
29
29
28
28
28
29
29
29
29
30
30
29
30
31
32
31
31
30
30
30
29
30
29
30
30
32
32
31
32
32
32
30
31
30
30
30
31
32
31
31
31
32
32
32
32
33
34
34
36
39
41
42
43
43
42
41
39
39
38
38
37
37
36
34
35
33
33
31
31
32
32
32
30
29
26
24
23
23
23
22
23
22
21
21
23
25
27
28
26
24
19
13
10
11
13
16
18
13
2
-11
-19
-14
-1
17
35
43
37
28
16
4
-9
-22
-29
-31
-29
-23
-14
-4
5
12
16
19
20
22
22
22
22
23
24
24
24
22
23
22
22
21
21
21
21
22
22
21
18
18
18
18
19
18
18
17
16
16
17
19
17
17
17
17
16
17
17
17
16
16
16
16
16
16
17
17
17
18
18
18
17
18
17
16
15
15
16
15
16
16
16
15
13
14
14
14
14
15
14
14
13
14
14
14
15
16
19
20
22
23
23
23
22
22
21
20
20
21
21
19
18
16
15
15
15
14
13
13
12
12
10
9
8
7
6
4
3
4
4
2
2
3
3
4
6
8
7
5
1
-3
-8
-11
-9
-5
-1
-2
-10
-22
-35
-37
-28
-13
5
16
17
12
4
-6
-19
-33
-45
-52
-53
-48
-42
-33
-24
-16
-10
-7
-4
-1
0
0
0
0
0
-1
0
1
1
0
0
0
-1
-2
-2
-1
-2
-2
-3
-4
-3
-4
-3
-3
-3
-3
-2
-2
-4
-5
-5
-4
-4
-4
-3
-4
-4
-4
-4
-4
-4
-3
-2
-1
-1
-1
-2
-2
-2
-1
-2
-2
-2
-3
-3
-4
-4
-5
-4
-4
-5
-5
-5
-4
-4
-4
-5
-5
-7
-8
-8
-6
-6
-5
-4
-3
-2
-2
-2
0
1
3
5
6
5
4
5
4
4
4
4
4
2
1
0
1
0
-1
-2
-2
-2
-2
-1
-2
-4
-6
-7
-8
-8
-8
-8
-9
-10
-10
-9
-7
-5
-2
-1
-2
-5
-11
-17
-21
-20
-16
-11
-10
-18
-31
-45
-51
-45
-32
-12
3
7
1
-5
-14
-26
-41
-55
-63
-64
-61
-55
-49
-42
-35
-26
-19
-15
-11
-8
-8
-9
-9
-8
-8
-7
-6
-6
-7
-8
-9
-9
-9
-9
-10
-8
-8
-9
-9
-9
-9
-10
-9
-9
-9
-11
-11
-10
-9
-9
-9
-9
-9
-9
-9
-10
-10
-11
-11
-10
-10
-9
-8
-8
-8
-8
-7
-5
-4
-6
-9
-11
-12
-14
-15
-15
-14
-14
-13
-12
-12
-12
-12
-11
-12
-12
-13
-13
-13
-13
-12
-11
-11
-10
-10
-9
-8
-6
-4
-1
0
0
0
0
0
-1
-1
0
2
1
1
0
-1
-4
-7
-10
-12
-11
-10
-9
-10
-12
-13
-14
-15
-17
-17
-17
-19
-19
-19
-17
-17
-18
-17
-14
-11
-11
-14
-19
-26
-31
-31
-27
-25
-25
-31
-43
-58
-64
-60
-45
-27
-10
-1
-4
-12
-22
-33
-46
-61
-74
-81
-80
-78
-71
-62
-48
-39
-30
-25
-22
-21
-20
-18
-16
-15
-14
-12
-12
-13
-13
-12
-11
-12
-12
-11
-11
-13
-15
-14
-14
-14
-15
-15
-15
-15
-15
-14
-14
-16
-15
-14
-13
-12
-12
-12
-13
-15
-15
-14
-13
-13
-15
-16
-17
-17
-16
-13
-11
-11
-11
-11
-12
-14
-14
-13
-12
-12
-12
-12
-12
-13
-12
-12
-12
-14
-15
-14
-13
-13
-12
-10
-11
-11
-9
-8
-8
-8
-7
-4
-3
-2
-1
0
-1
-2
-2
0
-1
0
0
0
-1
-3
-5
-6
-6
-6
-6
-8
-9
-11
-12
-11
-11
-13
-15
-16
-17
-18
-19
-20
-21
-21
-20
-18
-17
-16
-14
-12
-13
-17
-21
-27
-33
-36
-34
-31
-29
-32
-41
-54
-65
-65
-54
-33
-12
2
5
0
-10
-24
-40
-56
-67
-74
-75
-73
-68
-59
-48
-37
-29
-23
-19
-16
-13
-12
-13
-12
-11
-11
-11
-11
-10
-10
-11
-10
-9
-9
-11
-12
-12
-12
-11
-10
-9
-11
-13
-14
-13
-13
-14
-13
-12
-11
-12
-12
-11
-13
-14
-14
-14
-14
-13
-12
-12
-12
-12
-11
-10
-10
-10
-8
-7
-6
-7
-8
-8
-8
-8
-7
-7
-7
-7
-8
-7
-7
-7
-7
-6
-5
-6
-5
-4
-4
-5
-4
-1
-1
-1
-2
-1
-1
-2
-1
0
1
2
5
9
11
11
10
9
7
5
5
7
8
9
7
6
4
3
3
3
4
3
4
4
3
0
-3
-4
-5
-6
-7
-6
-5
-6
-7
-7
-6
-6
-2
0
3
1
-1
-3
-8
-15
-18
-17
-15
-12
-13
-21
-33
-43
-43
-33
-14
4
18
22
15
5
-8
-25
-41
-53
-57
-56
-50
-42
-32
-21
-12
-6
-1
1
2
2
3
4
5
6
7
7
7
7
7
6
6
6
6
6
6
4
4
5
4
4
5
5
4
3
1
0
1
3
4
5
4
3
3
3
3
5
7
8
7
6
6
4
4
4
7
8
8
6
6
8
8
9
8
8
8
9
10
10
9
7
7
8
11
12
9
7
6
7
8
10
10
9
9
10
11
11
14
14
13
11
12
15
20
22
22
22
20
18
17
18
21
23
23
22
20
18
18
18
18
19
18
17
13
10
10
12
12
10
9
6
4
2
2
3
4
5
6
8
8
9
9
11
10
7
3
-3
-8
-10
-7
-3
-1
-6
-20
-35
-41
-38
-23
-1
16
22
20
12
3
-11
-30
-45
-58
-62
-61
-54
-44
-35
-24
-13
-6
-1
2
6
7
5
4
4
6
6
7
7
6
5
5
6
6
6
6
5
5
4
4
4
3
1
1
2
2
2
2
3
2
2
3
4
4
1
0
0
0
0
1
4
3
2
0
0
1
3
6
6
5
2
2
1
2
3
3
3
2
1
0
0
-2
-3
-2
-1
0
-1
0
0
0
0
0
0
0
0
0
0
0
-2
-2
0
0
1
2
4
6
7
8
8
8
7
8
9
7
6
5
6
6
5
4
4
4
2
0
-1
-2
-2
-1
0
-2
-4
-5
-7
-9
-11
-10
-10
-9
-9
-9
-8
-7
-5
-3
-2
-4
-8
-13
-19
-23
-23
-19
-12
-12
-23
-42
-59
-66
-58
-40
-17
0
4
0
-5
-14
-27
-43
-57
-65
-67
-64
-60
-61
-61
-56
-43
-32
-25
-20
-16
-15
-15
-15
-14
-13
-11
-8
-8
-10
-11
-10
-10
-11
-11
-10
-7
-5
-6
-9
-14
-20
-23
-22
-21
-21
-21
-20
-19
-19
-17
-16
-14
-15
-18
-19
-20
-19
-19
-20
-20
-20
-19
-18
-17
-19
-18
-15
-13
-13
-15
-16
-17
-17
-17
-16
-16
-17
-17
-18
-18
-20
-20
-19
-19
-20
-21
-20
-19
-19
-21
-22
-23
-23
-22
-20
-19
-18
-17
-17
-17
-18
-18
-17
-16
-13
-9
-6
-6
-6
-8
-6
-4
-5
-8
-8
-8
-8
-10
-13
-15
-16
-17
-16
-16
-16
-16
-14
-14
-16
-18
-20
-20
-22
-23
-22
-20
-22
-25
-25
-24
-23
-20
-17
-14
-16
-22
-29
-36
-42
-43
-40
-36
-33
-37
-48
-61
-70
-68
-53
-31
-9
2
3
-5
-18
-34
-50
-66
-78
-84
-82
-76
-64
-51
-39
-31
-26
-23
-19
-18
-17
-16
-13
-10
-12
-14
-14
-13
-12
-10
-8
-7
-7
-10
-11
-13
-14
-13
-12
-11
-12
-12
-12
-13
-14
-14
-11
-11
-12
-12
-12
-11
-11
-9
-9
-9
-11
-11
-11
-12
-13
-13
-10
-8
-8
-7
-5
-5
-6
-6
-5
-4
-5
-6
-7
-7
-7
-5
-3
-3
-4
-5
-4
-3
-4
-4
-5
-5
-4
-3
-1
-1
-2
0
1
1
0
-1
0
-1
-1
1
3
4
5
8
8
8
7
8
8
8
8
8
9
8
8
7
8
8
8
8
6
4
3
2
0
-1
-3
-4
-3
-3
-4
-5
-5
-5
-6
-7
-7
-6
-3
1
3
2
-1
-6
-12
-17
-19
-15
-11
-11
-16
-26
-40
-49
-45
-28
-7
12
23
21
12
2
-13
-30
-49
-60
-65
-62
-55
-45
-33
-21
-12
-4
0
2
2
0
0
1
3
4
5
6
7
7
7
8
9
9
8
8
6
4
3
3
4
5
6
8
8
5
1
0
0
0
-1
0
0
1
0
0
0
0
1
3
5
4
3
2
2
2
4
6
6
5
4
5
7
8
9
8
8
7
5
3
4
7
7
8
8
9
10
11
11
9
8
7
8
9
9
9
10
10
10
10
10
9
8
9
10
11
12
14
17
20
21
21
22
24
24
22
17
15
14
14
15
16
18
18
17
15
14
12
12
11
11
9
8
8
7
6
6
4
2
2
5
8
9
8
9
10
11
10
7
2
-4
-9
-11
-9
-6
-3
-1
-10
-23
-33
-33
-22
-3
18
30
29
18
6
-4
-20
-38
-56
-62
-61
-56
-47
-37
-25
-15
-7
-1
1
2
5
7
9
9
11
11
8
6
6
7
6
5
3
3
4
3
3
3
3
1
1
1
2
2
1
1
0
1
2
5
4
3
2
3
3
1
0
0
0
0
0
1
0
0
0
2
2
3
4
4
4
2
2
2
2
2
1
1
0
0
1
2
1
0
0
0
0
0
0
2
3
2
0
0
-1
-1
-1
1
2
3
4
6
7
5
4
3
3
5
7
8
8
7
6
6
6
7
7
7
6
5
6
6
7
8
8
6
2
0
-1
-2
-4
-5
-5
-5
-7
-9
-9
-9
-8
-8
-6
-5
-2
1
2
3
2
-3
-12
-19
-20
-19
-16
-13
-14
-26
-43
-55
-56
-45
-23
-2
10
9
0
-6
-14
-28
-47
-65
-77
-80
-79
-70
-59
-47
-37
-26
-17
-11
-10
-10
-8
-7
-6
-5
-5
-5
-5
-4
-3
-2
-2
-2
-2
-4
-7
-7
-6
-3
-2
-3
-7
-12
-12
-11
-8
-7
-7
-7
-6
-5
-6
-6
-7
-8
-8
-7
-6
-8
-10
-11
-9
-7
-6
-3
-2
-3
-7
-8
-8
-7
-6
-6
-5
-5
-6
-6
-5
-3
-3
-5
-8
-10
-11
-9
-7
-6
-9
-11
-10
-9
-9
-8
-6
-6
-7
-7
-5
-4
-5
-7
-7
-7
-4
-1
4
7
5
2
2
2
2
2
4
5
6
6
3
0
-3
-3
0
0
-1
-3
-2
-1
-1
-3
-6
-7
-9
-11
-14
-15
-15
-15
-14
-12
-11
-13
-13
-11
-7
-4
-5
-9
-15
-21
-25
-25
-24
-23
-23
-26
-38
-52
-59
-55
-42
-22
-4
5
4
-4
-13
-23
-36
-51
-65
-74
-75
-73
-67
-59
-49
-40
-29
-19
-14
-11
-9
-8
-9
-9
-9
-7
-7
-8
-8
-7
-6
-7
-6
-6
-7
-7
-6
-5
-7
-8
-9
-8
-8
-8
-7
-6
-5
-7
-8
-8
-6
-5
-2
-3
-7
-12
-14
-13
-10
-8
-8
-7
-8
-9
-10
-8
-6
-5
-4
-4
-3
-4
-7
-9
-11
-11
-10
-8
-6
-6
-6
-6
-6
-6
-7
-7
-7
-7
-7
-5
-5
-4
-3
-2
-1
-3
-6
-7
-6
-4
0
0
0
0
2
7
8
8
6
5
5
5
6
6
7
5
4
4
5
4
4
5
4
4
1
0
0
-1
-2
-3
-5
-7
-9
-9
-9
-9
-8
-6
-4
-5
-5
-3
-1
0
-2
-4
-8
-16
-21
-23
-19
-14
-11
-15
-26
-40
-44
-37
-24
-7
9
18
16
6
-5
-19
-35
-51
-63
-65
-63
-57
-48
-35
-23
-16
-10
-7
-5
-4
-2
-1
0
0
0
2
3
2
1
2
1
1
1
2
2
0
-2
-2
-1
-1
-1
-2
-4
-5
-5
-3
0
0
-1
-3
-3
-4
-4
-3
-4
-4
-2
-1
-2
-4
-4
-3
-2
0
0
3
2
0
0
0
-1
-2
-1
0
0
0
0
1
2
4
2
1
0
0
0
2
3
1
2
3
4
3
2
2
2
3
5
7
7
8
9
12
14
15
17
18
18
17
17
17
15
14
15
17
17
16
16
15
14
12
12
10
9
9
10
9
8
7
5
4
1
1
1
2
3
4
5
5
6
6
8
8
7
3
-1
-7
-9
-7
-4
0
0
-5
-16
-26
-31
-25
-7
11
27
31
27
20
9
-4
-21
-37
-46
-48
-42
-35
-28
-18
-7
2
9
12
14
15
17
18
18
17
16
17
18
19
20
22
23
21
18
15
14
14
14
14
15
18
18
18
16
15
14
14
14
15
16
16
16
17
16
16
16
18
17
18
18
18
17
16
17
17
18
18
19
19
19
19
20
21
19
19
18
19
21
22
23
21
19
19
21
22
21
20
19
19
18
18
19
20
19
19
20
20
20
20
22
22
24
25
27
29
30
30
29
29
29
29
29
30
30
30
29
25
22
21
22
22
21
21
22
22
21
19
17
16
15
14
15
13
12
12
13
14
14
15
15
18
21
23
22
18
11
6
5
6
9
13
14
7
-5
-16
-18
-10
3
23
36
38
33
23
13
-1
-17
-29
-36
-35
-31
-23
-13
-3
5
12
18
22
23
24
24
22
20
21
24
25
26
26
26
25
24
24
24
24
24
24
25
25
24
24
23
21
20
19
19
20
21
23
23
23
22
22
23
21
20
20
22
23
23
23
24
24
23
23
23
23
23
24
24
24
24
24
25
24
22
20
20
21
20
21
20
20
20
21
21
20
20
20
20
18
18
19
20
19
17
17
16
16
17
19
20
20
21
22
24
24
25
25
26
25
25
25
24
24
23
24
22
21
21
22
22
21
20
18
19
19
18
17
14
11
9
11
11
10
10
12
14
13
14
16
19
19
19
17
13
8
4
6
9
13
14
12
2
-12
-19
-18
-8
6
22
30
27
19
9
0
-14
-27
-38
-42
-39
-35
-27
-18
-9
-3
1
5
7
8
9
11
11
12
11
12
11
11
10
11
12
11
11
10
10
9
7
8
8
8
6
6
5
3
2
4
6
5
5
5
5
5
5
6
5
5
5
5
4
2
3
3
4
4
5
5
5
4
4
3
3
2
2
1
1
1
1
0
-1
-3
-3
-1
0
0
0
0
-1
-2
-3
-3
-2
-1
-1
-1
0
-1
-2
-2
-2
-2
-1
0
1
1
1
3
4
4
3
4
4
4
5
5
5
4
2
0
0
0
0
0
0
-2
-3
-4
-4
-3
-3
-5
-7
-9
-12
-12
-12
-11
-12
-12
-11
-11
-11
-11
-9
-6
-5
-6
-9
-14
-20
-23
-22
-18
-14
-12
-19
-33
-49
-56
-51
-39
-20
-5
0
-5
-13
-22
-34
-50
-66
-77
-80
-78
-72
-65
-55
-46
-37
-30
-25
-22
-21
-20
-17
-16
-16
-15
-15
-13
-15
-14
-14
-15
-16
-17
-16
-16
-17
-18
-18
-18
-19
-19
-18
-17
-18
-18
-17
-17
-17
-19
-18
-20
-21
-21
-20
-20
-20
-20
-20
-21
-21
-20
-19
-19
-21
-21
-20
-19
-19
-20
-19
-19
-19
-20
-21
-21
-22
-22
-21
-21
-21
-22
-22
-22
-23
-23
-23
-22
-22
-22
-22
-22
-22
-23
-23
-23
-24
-23
-22
-21
-20
-19
-15
-14
-13
-13
-14
-14
-13
-12
-13
-14
-15
-16
-15
-15
-18
-19
-19
-18
-19
-21
-22
-23
-25
-24
-24
-25
-27
-30
-32
-33
-33
-35
-35
-35
-34
-34
-34
-33
-31
-28
-27
-29
-34
-40
-45
-47
-47
-45
-41
-43
-54
-70
-83
-86
-79
-60
-38
-21
-20
-27
-37
-47
-61
-77
-91
-100
-104
-103
-98
-88
-78
-67
-56
-47
-41
-37
-34
-33
-32
-33
-32
-31
-29
-30
-30
-29
-30
-30
-31
-30
-30
-30
-29
-29
-30
-31
-31
-30
-30
-31
-31
-30
-29
-29
-28
-27
-28
-30
-30
-29
-29
-30
-29
-28
-28
-30
-30
-30
-28
-28
-27
-26
-26
-27
-26
-25
-25
-25
-25
-24
-24
-25
-25
-24
-23
-25
-26
-25
-25
-25
-25
-25
-25
-25
-25
-24
-24
-24
-24
-24
-22
-23
-22
-21
-20
-20
-20
-18
-17
-14
-10
-8
-8
-10
-10
-11
-10
-11
-11
-10
-10
-11
-13
-13
-13
-13
-13
-15
-17
-18
-17
-15
-15
-18
-21
-22
-23
-25
-26
-24
-24
-24
-24
-23
-21
-21
-20
-16
-14
-14
-17
-22
-29
-34
-35
-31
-28
-26
-29
-40
-54
-64
-62
-47
-25
-6
3
0
-8
-21
-37
-53
-68
-78
-81
-78
-72
-65
-54
-43
-33
-25
-19
-17
-16
-16
-15
-13
-12
-12
-12
-11
-12
-12
-12
-11
-12
-13
-14
-14
-14
-14
-15
-15
-14
-14
-13
-12
-11
-12
-13
-13
-14
-15
-15
-14
-12
-11
-11
-11
-11
-12
-13
-12
-11
-11
-10
-9
-9
-9
-9
-8
-8
-7
-6
-6
-6
-7
-8
-8
-8
-7
-7
-7
-8
-8
-8
-8
-7
-8
-7
-7
-6
-7
-7
-5
-4
-3
-3
-2
-2
-3
-2
0
2
2
4
7
9
8
8
8
8
8
8
7
6
6
6
7
5
4
3
4
3
1
2
2
2
1
0
-1
-3
-4
-6
-6
-8
-8
-7
-5
-5
-5
-3
0
2
3
2
0
-5
-11
-15
-13
-9
-5
-5
-9
-20
-34
-42
-37
-24
-6
13
23
20
11
-1
-15
-30
-45
-54
-56
-54
-48
-39
-27
-15
-6
0
3
3
2
3
4
5
5
6
7
9
9
9
9
9
8
9
10
10
8
7
7
7
6
5
5
6
6
6
7
8
6
6
5
6
6
7
9
8
7
6
6
6
7
8
9
9
8
9
10
11
10
11
12
11
10
11
12
11
10
10
10
11
9
10
11
12
11
11
11
10
9
9
11
11
12
13
13
14
13
12
12
12
12
13
15
18
20
21
23
22
21
21
22
22
21
21
21
20
18
17
17
16
16
16
17
15
14
13
13
12
9
9
8
7
6
5
4
2
3
5
7
7
10
13
15
13
9
5
0
-2
-2
2
7
9
6
-7
-21
-27
-22
-7
12
27
33
30
21
10
-4
-22
-37
-47
-47
-42
-35
-26
-16
-5
2
7
10
13
15
16
16
18
18
17
18
19
19
19
20
20
20
19
18
17
16
16
15
15
15
15
15
15
15
14
15
16
16
15
16
16
16
16
17
19
18
17
16
18
18
17
17
17
19
19
19
19
19
19
19
20
20
20
20
21
21
20
19
18
18
17
18
19
20
19
17
17
17
17
17
18
19
18
19
19
20
18
19
20
21
20
19
20
21
24
27
30
30
29
28
28
27
26
27
26
27
27
26
24
24
23
21
21
20
20
20
20
21
18
16
14
12
9
9
9
9
10
10
12
12
13
14
18
20
19
17
13
7
1
0
3
8
14
15
8
-8
-22
-26
-19
-3
16
29
29
22
12
1
-13
-30
-43
-51
-49
-43
-35
-25
-13
-4
1
4
7
9
8
10
11
11
10
10
12
12
12
11
12
11
11
9
9
9
8
7
7
7
6
6
8
7
6
5
5
4
4
5
6
6
4
3
4
4
3
3
4
4
4
5
6
6
5
5
5
6
6
7
7
7
6
4
2
1
1
2
4
4
3
2
2
1
0
0
1
2
1
1
1
1
0
-1
0
0
0
-2
-1
-1
-1
0
0
1
1
2
3
4
5
6
7
6
6
5
6
6
6
6
5
6
4
1
0
0
1
0
0
-1
-1
-1
-2
-4
-7
-10
-10
-10
-12
-13
-12
-11
-11
-12
-12
-12
-11
-8
-3
-2
-4
-9
-14
-20
-24
-24
-19
-13
-11
-17
-31
-47
-56
-53
-40
-21
-5
0
-3
-12
-21
-34
-50
-66
-78
-83
-80
-73
-65
-56
-46
-36
-29
-24
-19
-17
-17
-18
-18
-16
-15
-14
-14
-14
-16
-17
-16
-16
-16
-17
-17
-16
-17
-18
-18
-19
-20
-20
-19
-19
-20
-20
-19
-19
-20
-21
-20
-19
-20
-20
-19
-19
-19
-19
-18
-17
-18
-18
-18
-18
-18
-17
-17
-17
-19
-20
-19
-19
-19
-20
-20
-19
-19
-20
-21
-22
-22
-23
-23
-22
-22
-21
-20
-19
-21
-22
-24
-25
-25
-23
-21
-20
-21
-22
-22
-21
-22
-22
-21
-20
-19
-17
-14
-11
-10
-11
-11
-12
-12
-12
-12
-12
-12
-12
-13
-14
-15
-15
-14
-16
-18
-19
-18
-17
-17
-19
-22
-23
-25
-27
-27
-27
-27
-27
-25
-24
-24
-25
-24
-21
-18
-17
-18
-20
-25
-33
-37
-36
-34
-30
-29
-35
-48
-64
-72
-69
-56
-37
-16
-9
-13
-22
-30
-40
-54
-69
-81
-87
-87
-85
-78
-69
-58
-48
-39
-32
-26
-24
-22
-21
-21
-20
-19
-18
-18
-19
-18
-17
-17
-19
-19
-18
-19
-20
-20
-19
-19
-20
-20
-20
-20
-21
-20
-20
-19
-20
-19
-18
-18
-19
-19
-19
-19
-20
-20
-18
-17
-16
-17
-17
-17
-18
-17
-16
-15
-14
-13
-13
-13
-14
-15
-15
-15
-16
-16
-15
-15
-15
-14
-13
-13
-15
-15
-15
-15
-15
-14
-13
-13
-13
-12
-10
-10
-11
-12
-11
-11
-12
-11
-9
-7
-7
-5
-2
-1
0
0
0
0
0
0
0
0
-1
-1
-1
-2
-4
-5
-6
-7
-7
-7
-6
-6
-7
-8
-10
-11
-12
-13
-14
-14
-15
-15
-13
-11
-10
-10
-9
-7
-6
-5
-6
-10
-15
-20
-20
-19
-17
-14
-14
-23
-37
-48
-50
-42
-25
-4
9
11
3
-4
-16
-28
-43
-56
-60
-62
-58
-52
-43
-34
-24
-15
-10
-7
-6
-5
-5
-4
-3
-1
0
1
0
0
0
0
0
0
1
0
-1
-1
0
-1
-1
-1
-1
-1
-2
-2
-2
-2
-2
-2
-1
-2
-2
-2
-2
-2
-2
-1
-1
0
-1
0
0
0
0
1
3
2
1
1
1
2
2
2
3
3
3
3
2
1
2
1
2
2
2
3
3
3
2
1
2
4
4
4
3
3
3
3
4
4
4
5
6
7
8
11
13
13
12
14
13
13
12
13
14
13
11
9
9
8
9
9
8
7
6
7
6
4
2
1
1
0
0
-2
-3
-4
-3
-2
-1
0
0
3
6
6
4
0
-4
-9
-12
-10
-7
-4
-4
-9
-21
-33
-42
-39
-26
-8
9
18
15
6
-3
-15
-28
-42
-53
-55
-53
-48
-42
-33
-23
-14
-8
-3
-1
0
1
2
2
1
2
3
4
5
6
6
4
3
1
1
1
1
1
1
2
1
1
1
1
0
0
1
1
1
1
2
1
0
0
0
0
-2
0
1
2
0
0
-1
-1
-1
0
2
3
3
3
3
3
1
0
2
2
2
2
3
2
1
0
0
0
0
1
2
3
2
2
3
3
2
2
2
3
3
4
6
5
4
3
4
6
9
13
15
16
13
13
14
14
14
14
15
16
16
14
12
10
8
8
9
11
10
10
10
9
7
5
4
1
0
0
0
0
0
1
3
4
3
4
8
11
10
7
3
-4
-9
-12
-10
-6
-2
-1
-8
-21
-35
-41
-34
-18
3
20
24
18
7
-6
-21
-38
-51
-57
-56
-50
-42
-32
-21
-12
-6
-2
1
2
3
4
7
7
7
6
5
5
4
5
6
7
6
5
5
5
3
3
3
3
4
4
4
4
3
5
5
6
4
4
4
5
5
5
4
4
3
3
4
4
4
4
5
6
6
7
7
7
7
7
9
10
10
9
9
8
7
6
7
7
7
7
8
9
9
9
9
9
8
7
9
9
10
10
11
11
11
12
12
14
15
16
19
21
23
22
24
23
22
20
19
19
20
21
20
20
18
16
16
16
17
16
17
17
16
13
11
10
7
6
6
7
7
7
7
7
7
7
9
11
13
14
15
13
8
1
-3
-1
2
6
10
7
-4
-20
-29
-26
-14
4
22
30
26
16
5
-6
-20
-35
-46
-49
-46
-40
-32
-22
-12
-4
1
4
6
7
9
12
11
11
11
11
11
10
11
11
12
11
12
12
10
9
9
10
9
8
7
9
8
8
9
9
9
7
7
7
7
7
8
9
9
9
10
12
12
13
13
13
11
8
8
10
12
13
15
15
12
9
9
9
9
11
12
12
11
10
10
11
11
10
10
10
10
10
12
12
11
9
8
7
7
8
10
10
10
10
12
13
15
16
17
18
18
19
19
19
17
15
15
15
16
14
13
12
12
11
11
11
10
10
10
10
7
2
-1
-1
0
1
2
2
1
1
1
2
2
4
7
7
2
-5
-11
-14
-12
-9
-5
-5
-13
-28
-42
-48
-42
-23
-3
11
12
5
-3
-12
-24
-37
-49
-57
-61
-60
-56
-49
-39
-28
-18
-12
-9
-6
-4
-3
-1
0
0
0
-1
-2
-1
0
0
1
0
0
-1
-2
0
0
0
-1
-1
-3
-3
-2
0
0
0
-2
-2
-1
-2
-1
-1
0
0
1
2
1
-1
-3
-2
-1
0
0
1
2
2
1
0
0
-1
-3
-3
-3
-1
-1
0
0
0
-2
-3
-2
-2
-3
-4
-5
-5
-3
0
0
-1
-4
-5
-3
-1
0
1
4
2
0
0
1
4
7
9
8
6
5
6
5
4
4
5
5
4
2
2
2
2
1
1
1
1
1
1
0
-1
-4
-5
-5
-7
-8
-8
-7
-7
-7
-6
-4
-5
-6
-3
0
1
-2
-9
-15
-20
-20
-18
-13
-13
-21
-33
-43
-46
-39
-23
-6
8
14
12
5
-6
-21
-37
-47
-52
-53
-54
-55
-55
-49
-38
-27
-19
-14
-10
-9
-9
-9
-8
-6
-6
-5
-3
-2
-2
-2
-4
-7
-10
-12
-10
-7
-6
-6
-7
-8
-10
-12
-14
-13
-10
-9
-9
-8
-8
-9
-8
-8
-8
-10
-11
-10
-10
-10
-9
-9
-10
-10
-9
-8
-9
-10
-11
-11
-11
-10
-8
-8
-9
-10
-10
-10
-10
-10
-8
-7
-8
-9
-9
-8
-7
-7
-7
-8
-9
-8
-8
-7
-6
-5
-2
-1
-3
-6
-7
-6
-5
-3
0
2
2
2
1
2
2
3
3
4
2
1
0
-1
-2
0
1
2
2
1
0
-2
-5
-7
-7
-7
-8
-8
-8
-10
-11
-12
-11
-9
-8
-6
-4
0
1
0
-5
-12
-20
-25
-25
-21
-15
-14
-18
-27
-40
-45
-40
-27
-11
6
14
14
6
-3
-14
-27
-37
-45
-50
-50
-48
-41
-32
-25
-21
-19
-16
-14
-13
-12
-10
-10
-9
-7
-5
-3
-4
-5
-6
-6
-5
-4
-3
-2
-1
-1
-4
-7
-11
-13
-15
-16
-16
-16
-15
-14
-14
-15
-15
-14
-15
-15
-13
-12
-11
-11
-9
-9
-10
-12
-11
-9
-10
-12
-14
-13
-12
-10
-10
-11
-14
-17
-18
-17
-15
-12
-11
-12
-14
-15
-14
-13
-13
-13
-13
-12
-12
-12
-12
-14
-16
-18
-18
-15
-12
-11
-13
-13
-13
-11
-7
-3
-2
-2
-1
0
0
-3
-8
-11
-11
-8
-6
-7
-11
-12
-10
-8
-9
-10
-12
-12
-12
-14
-15
-17
-19
-20
-21
-23
-26
-26
-25
-23
-21
-21
-19
-16
-15
-15
-17
-22
-29
-31
-29
-24
-20
-20
-30
-42
-51
-56
-53
-44
-28
-11
-3
-7
-13
-21
-30
-44
-60
-70
-74
-71
-65
-58
-46
-35
-27
-25
-25
-26
-26
-24
-22
-21
-22
-21
-19
-18
-18
-19
-19
-19
-20
-20
-21
-21
-20
-18
-18
-20
-23
-24
-25
-26
-27
-26
-26
-26
-27
-27
-26
-26
-25
-25
-23
-23
-24
-25
-24
-23
-23
-24
-26
-26
-25
-24
-23
-24
-24
-25
-24
-23
-23
-22
-22
-22
-24
-24
-23
-23
-23
-23
-23
-24
-25
-25
-22
-21
-20
-19
-20
-22
-24
-26
-27
-27
-26
-24
-22
-21
-19
-17
-15
-13
-12
-13
-12
-12
-13
-13
-13
-12
-11
-10
-11
-13
-13
-12
-13
-14
-16
-17
-16
-15
-16
-18
-23
-26
-29
-29
-28
-29
-28
-28
-27
-27
-26
-25
-22
-20
-19
-20
-22
-26
-33
-37
-37
-36
-33
-32
-34
-45
-57
-63
-59
-45
-28
-10
-2
-5
-12
-19
-29
-44
-61
-76
-83
-85
-81
-74
-64
-53
-42
-33
-27
-24
-23
-22
-20
-19
-19
-19
-18
-18
-17
-18
-17
-18
-18
-18
-18
-17
-17
-17
-18
-18
-19
-19
-19
-19
-20
-20
-18
-18
-19
-19
-18
-18
-18
-16
-15
-14
-16
-16
-17
-18
-18
-18
-17
-17
-16
-15
-15
-15
-15
-14
-14
-14
-15
-16
-16
-16
-16
-15
-14
-13
-13
-12
-11
-12
-13
-14
-14
-14
-14
-12
-11
-11
-12
-12
-11
-11
-12
-12
-10
-9
-6
-3
-1
0
-1
0
0
0
-1
-1
-2
-3
-4
-3
-1
-1
-2
-2
-2
-3
-3
-2
-2
-3
-4
-4
-7
-10
-11
-12
-11
-12
-12
-12
-10
-10
-11
-10
-8
-6
-5
-5
-8
-13
-19
-24
-25
-24
-22
-21
-23
-31
-43
-50
-50
-38
-18
4
19
18
8
-2
-12
-26
-44
-58
-67
-68
-65
-57
-48
-38
-28
-16
-9
-5
-4
-2
-1
-1
0
1
2
1
1
2
3
3
2
2
2
2
3
4
4
3
2
1
1
1
0
1
3
5
5
4
4
2
1
2
3
3
3
3
4
4
3
3
3
3
3
5
6
6
5
6
6
7
7
7
7
6
7
7
8
8
7
6
6
7
6
7
7
9
8
8
7
7
8
8
10
10
10
10
10
12
11
13
15
19
21
22
23
21
21
19
19
18
18
17
18
19
17
16
15
15
14
14
14
14
14
13
10
8
6
5
4
2
1
0
1
2
3
3
2
3
5
7
9
9
5
-1
-9
-14
-16
-14
-10
-7
-9
-19
-31
-37
-33
-20
2
21
31
28
18
5
-9
-28
-45
-58
-63
-62
-53
-41
-29
-18
-7
0
3
3
4
7
9
11
11
10
10
10
11
12
11
11
11
11
11
11
10
10
11
11
11
11
9
8
8
9
7
7
6
6
6
5
6
7
8
7
7
7
6
6
6
8
7
6
6
7
7
7
8
9
9
8
8
8
8
8
6
7
6
6
6
7
8
6
6
6
7
6
7
8
8
8
7
6
5
5
5
6
6
6
7
10
13
16
18
18
17
15
15
15
14
13
12
12
12
12
12
12
11
9
10
9
9
8
7
6
3
2
0
0
-1
-1
-1
0
0
-1
0
1
2
4
5
5
3
-1
-7
-13
-17
-19
-17
-14
-14
-20
-32
-41
-44
-36
-17
4
18
21
14
3
-8
-24
-40
-54
-63
-65
-62
-54
-46
-35
-24
-14
-9
-5
-1
1
1
1
1
0
0
0
1
1
1
2
2
2
1
0
0
0
0
1
2
3
2
0
-1
-1
-1
-2
-2
0
1
0
0
0
0
-1
-2
-3
-4
-3
-2
-2
-2
-3
-3
-2
-1
-1
0
0
-1
-2
-2
-2
-2
-3
-2
-2
-2
-2
-2
-3
-5
-5
-5
-5
-5
-4
-3
-2
-3
-4
-5
-5
-4
-4
-3
-2
-1
0
0
1
3
4
4
5
4
2
1
2
2
0
0
-1
-1
-2
-1
-1
-1
-1
-1
0
0
-1
-3
-5
-9
-11
-11
-11
-10
-11
-12
-13
-13
-13
-11
-8
-7
-7
-8
-10
-16
-23
-27
-28
-27
-24
-22
-25
-36
-47
-54
-51
-36
-15
4
14
11
1
-8
-21
-36
-52
-65
-68
-68
-64
-58
-50
-39
-30
-19
-12
-9
-7
-7
-6
-6
-6
-5
-3
-3
-3
-4
-4
-4
-3
-1
-1
-3
-4
-4
-2
-2
-3
-1
-2
-3
-5
-5
-5
-4
-3
-3
-3
-4
-4
-3
-3
-3
-3
-2
-1
-1
-1
0
0
-1
-2
-2
-2
-2
-1
0
0
-1
-2
-1
-1
-3
-4
-3
-2
-2
-2
-2
-1
-2
-2
-2
-2
-2
-2
-1
0
-1
-2
-2
0
0
0
1
3
5
8
10
12
12
11
11
11
12
11
11
10
10
9
8
7
5
5
6
6
6
6
6
7
6
2
0
-2
-4
-5
-4
-2
-3
-3
-2
-1
-1
-1
0
2
3
0
-3
-7
-12
-16
-18
-17
-14
-13
-16
-24
-34
-40
-34
-19
0
17
25
23
15
3
-10
-26
-41
-50
-54
-54
-50
-43
-32
-22
-14
-7
-2
0
2
2
4
5
6
5
5
7
6
6
7
8
8
7
6
6
7
6
6
6
5
4
3
5
5
5
4
4
5
5
7
6
5
3
3
5
6
7
6
4
4
4
5
5
5
5
7
8
8
7
7
8
8
7
7
5
5
7
9
10
8
7
6
6
6
5
7
8
8
7
7
7
7
8
10
12
12
14
17
19
19
18
17
16
17
17
16
16
16
16
14
14
12
11
11
10
9
9
11
12
12
9
6
3
1
0
0
0
0
-1
-1
-2
0
0
2
3
3
0
0
-3
-8
-14
-18
-16
-14
-13
-14
-19
-28
-36
-34
-26
-12
6
20
24
19
8
-4
-18
-34
-47
-55
-56
-52
-45
-35
-26
-17
-9
-1
1
1
0
0
0
0
1
2
2
2
2
2
3
4
2
2
1
1
0
0
0
1
1
0
0
-1
0
0
0
0
-1
0
0
-1
-2
-1
-1
-3
-3
-1
0
-1
-2
-1
-1
-1
-2
-1
0
0
0
0
0
-1
-1
-1
-1
-2
-3
-3
-2
-2
-1
-1
-1
0
-1
-2
-2
-2
-2
-1
0
-1
0
0
2
2
1
3
7
10
11
11
10
9
8
8
8
5
4
5
5
4
3
4
3
2
0
0
0
1
0
-1
-2
-6
-8
-9
-10
-11
-11
-11
-10
-10
-10
-10
-9
-7
-5
-6
-8
-12
-16
-20
-24
-26
-27
-25
-23
-25
-32
-41
-44
-40
-26
-7
10
17
13
5
-5
-20
-37
-53
-62
-65
-63
-57
-48
-37
-27
-18
-11
-8
-6
-5
-4
-5
-6
-6
-5
-5
-5
-3
-4
-4
-5
-6
-6
-6
-5
-5
-4
-5
-6
-6
-5
-5
-6
-6
-6
-5
-7
-8
-8
-8
-8
-7
-6
-6
-8
-8
-7
-7
-7
-7
-7
-7
-8
-8
-7
-7
-7
-6
-5
-5
-7
-7
-6
-5
-6
-6
-7
-6
-6
-5
-5
-5
-4
-4
-4
-4
-4
-4
-3
-3
-4
-3
-2
-2
-2
-1
0
3
4
6
7
7
6
6
6
5
3
3
4
5
3
2
1
1
0
0
1
0
0
-2
-3
-6
-8
-9
-9
-9
-11
-11
-11
-11
-11
-11
-10
-11
-11
-9
-8
-9
-12
-16
-21
-26
-30
-29
-26
-23
-25
-33
-43
-49
-48
-38
-20
0
12
14
7
-4
-18
-35
-51
-63
-69
-70
-64
-56
-47
-38
-26
-19
-14
-11
-9
-9
-9
-9
-8
-7
-6
-7
-6
-7
-7
-7
-6
-7
-7
-9
-9
-9
-9
-8
-8
-7
-8
-9
-10
-11
-11
-11
-11
-10
-9
-9
-9
-9
-9
-9
-10
-9
-10
-10
-10
-9
-9
-9
-8
-9
-9
-10
-9
-8
-9
-10
-10
-8
-8
-8
-8
-8
-9
-10
-10
-9
-9
-8
-8
-8
-8
-9
-9
-8
-8
-7
-7
-5
-6
-5
-5
-5
-5
-4
-2
0
1
1
1
0
1
2
1
0
0
0
0
-1
-1
-2
-2
-3
-3
-5
-5
-5
-5
-6
-7
-9
-10
-13
-13
-13
-13
-14
-15
-15
-14
-14
-14
-13
-11
-9
-9
-11
-14
-18
-24
-28
-29
-29
-27
-26
-27
-35
-45
-51
-48
-37
-18
1
13
12
2
-9
-21
-37
-52
-62
-66
-66
-63
-55
-45
-35
-27
-18
-14
-12
-12
-11
-11
-10
-10
-10
-9
-11
-12
-11
-9
-9
-10
-9
-9
-9
-11
-11
-12
-12
-13
-13
-13
-13
-13
-14
-14
-14
-14
-13
-13
-13
-13
-13
-12
-12
-12
-12
-12
-13
-14
-14
-14
-13
-13
-12
-12
-12
-11
-10
-11
-10
-10
-10
-9
-9
-10
-10
-9
-10
-11
-11
-11
-11
-11
-10
-10
-9
-10
-10
-10
-9
-8
-9
-9
-9
-9
-8
-6
-5
-4
-1
0
2
2
1
1
1
1
0
0
0
-1
-3
-4
-4
-5
-5
-5
-6
-7
-7
-7
-6
-7
-9
-9
-11
-13
-14
-14
-15
-15
-14
-11
-9
-8
-10
-11
-10
-8
-8
-10
-13
-18
-25
-26
-24
-20
-18
-19
-26
-38
-47
-45
-32
-14
4
14
13
7
-2
-12
-24
-39
-49
-55
-54
-51
-44
-36
-29
-24
-19
-11
-5
-4
-5
-5
-5
-5
-5
-4
-2
0
0
-1
-3
-2
0
0
-2
-2
0
1
0
0
0
0
-1
-4
-6
-7
-5
-4
-2
-1
-1
-2
-3
-1
0
2
1
1
1
-1
-2
0
3
3
4
5
5
4
3
5
6
6
4
3
3
4
5
5
5
5
5
6
7
6
6
7
7
7
6
6
7
8
9
9
9
9
9
9
11
12
13
14
15
16
18
21
22
20
16
15
14
16
16
16
14
12
12
10
8
8
9
14
15
15
13
13
11
10
8
7
8
7
7
7
7
7
10
15
15
14
13
11
8
2
-1
-1
2
7
10
7
-2
-12
-18
-15
-2
16
31
38
31
22
14
2
-11
-27
-38
-41
-38
-30
-20
-9
0
5
11
15
16
15
15
16
18
18
18
18
18
18
19
20
19
17
16
16
16
16
16
16
16
15
14
12
12
13
15
17
17
17
16
17
17
17
18
19
18
17
19
18
18
16
18
19
19
19
17
17
17
17
16
17
17
17
18
18
19
18
18
18
18
18
17
16
14
15
16
17
16
16
17
17
16
15
16
17
17
18
18
19
19
22
25
29
28
28
27
26
23
22
23
23
22
18
16
15
14
16
15
16
15
14
13
12
12
10
9
8
8
7
7
7
7
9
9
11
12
14
17
18
17
12
6
0
-2
0
7
13
15
11
0
-12
-19
-15
-2
16
29
32
28
20
13
-1
-19
-35
-45
-46
-41
-35
-25
-17
-7
0
4
7
8
9
10
11
12
12
13
13
12
12
11
11
10
11
11
11
11
9
9
7
7
7
6
4
4
5
4
4
3
4
4
5
5
6
7
6
5
5
4
3
5
6
3
3
5
7
6
5
6
7
7
5
5
5
5
5
3
2
1
2
2
2
0
0
0
0
1
2
3
2
2
1
1
0
-2
-1
0
2
1
0
0
1
3
5
7
7
6
5
4
3
2
2
3
3
1
1
0
-1
-4
-5
-2
-1
-1
-2
-5
-7
-8
-7
-7
-7
-10
-14
-14
-14
-14
-13
-11
-9
-7
-6
-4
-3
-4
-5
-9
-14
-18
-18
-12
-5
-3
-11
-23
-34
-37
-28
-13
2
10
7
0
-7
-19
-33
-49
-62
-69
-69
-63
-54
-45
-36
-28
-23
-20
-19
-17
-16
-16
-14
-14
-14
-15
-15
-14
-15
-16
-16
-15
-15
-16
-16
-15
-16
-16
-17
-18
-18
-18
-18
-19
-19
-18
-20
-20
-20
-20
-19
-18
-18
-20
-20
-19
-19
-20
-20
-19
-18
-18
-19
-18
-18
-18
-17
-16
-16
-17
-17
-17
-17
-17
-17
-17
-18
-19
-19
-18
-18
-20
-22
-22
-22
-21
-20
-19
-19
-21
-21
-20
-19
-19
-20
-19
-19
-18
-18
-17
-15
-15
-14
-13
-11
-12
-12
-13
-14
-15
-15
-16
-16
-18
-20
-21
-22
-24
-24
-24
-23
-24
-24
-24
-26
-28
-30
-30
-30
-31
-31
-30
-30
-30
-30
-30
-29
-27
-23
-19
-19
-22
-29
-35
-40
-40
-35
-28
-22
-23
-32
-44
-53
-55
-44
-26
-11
-4
-7
-13
-21
-33
-50
-67
-80
-85
-84
-78
-69
-60
-50
-42
-36
-33
-30
-27
-26
-25
-24
-23
-23
-23
-24
-24
-23
-22
-21
-21
-21
-23
-24
-23
-23
-23
-23
-21
-22
-23
-23
-24
-24
-24
-23
-22
-21
-21
-22
-21
-21
-21
-21
-21
-22
-22
-20
-19
-19
-19
-19
-19
-18
-17
-16
-16
-15
-16
-17
-17
-18
-19
-20
-20
-20
-20
-20
-20
-19
-18
-18
-18
-17
-18
-19
-19
-18
-18
-19
-18
-18
-18
-19
-19
-18
-18
-17
-17
-15
-15
-14
-12
-9
-8
-7
-6
-7
-7
-8
-9
-10
-12
-13
-16
-17
-17
-17
-16
-15
-14
-16
-16
-16
-17
-19
-21
-21
-22
-24
-25
-25
-25
-25
-25
-24
-23
-22
-18
-14
-12
-14
-19
-26
-32
-35
-34
-29
-24
-22
-29
-42
-57
-65
-59
-45
-25
-10
-5
-11
-20
-29
-37
-50
-62
-73
-77
-78
-73
-65
-55
-43
-32
-26
-21
-17
-15
-14
-13
-10
-9
-8
-10
-10
-10
-10
-11
-11
-10
-10
-9
-8
-8
-9
-10
-10
-9
-7
-4
-3
-5
-7
-8
-8
-7
-5
-5
-4
-4
-4
-4
-4
-6
-7
-7
-5
-3
-3
-4
-4
-4
-4
-4
-3
-1
-2
-2
-1
-2
-2
-2
-1
-1
-1
-2
-3
-3
-4
-4
-4
-4
-4
-3
-2
-3
-3
-4
-3
-4
-4
-3
-3
-2
-2
-1
-1
0
0
1
3
5
6
6
7
6
6
4
4
4
4
3
1
0
0
-1
-1
-1
-1
-2
-3
-3
-4
-4
-4
-4
-6
-6
-6
-5
-5
-6
-5
-4
-3
-2
0
1
0
-1
-2
-6
-11
-15
-14
-9
-6
-3
-7
-17
-31
-40
-38
-25
-6
9
15
12
3
-6
-16
-28
-41
-54
-61
-62
-57
-50
-40
-30
-19
-12
-6
-4
-4
-4
-3
-2
-2
-1
0
1
1
1
0
0
-1
-2
-2
-1
0
0
0
0
-1
-2
-2
-2
-2
-1
0
0
0
-1
-1
-1
-1
-2
-2
-1
-1
0
0
0
0
0
-1
-1
-1
0
1
2
3
2
2
1
0
0
1
1
0
0
-1
0
-1
-1
-1
-1
-1
-3
-3
-2
-2
-2
-1
-1
-2
-2
-2
-2
-3
-3
-1
0
1
4
6
6
6
5
6
6
5
5
4
4
3
2
0
-1
-2
-2
-2
-2
-3
-2
0
0
-1
-4
-7
-9
-11
-11
-11
-11
-10
-11
-10
-9
-8
-7
-3
0
0
-3
-8
-13
-18
-19
-16
-10
-6
-6
-13
-27
-40
-43
-34
-19
-2
9
9
3
-5
-15
-29
-44
-56
-64
-64
-59
-52
-43
-33
-24
-18
-13
-10
-7
-6
-6
-6
-5
-5
-6
-5
-4
-5
-6
-6
-6
-6
-6
-6
-6
-7
-8
-9
-7
-6
-6
-6
-6
-6
-6
-4
-4
-4
-5
-5
-5
-5
-6
-6
-4
-4
-5
-4
-4
-4
-4
-3
-4
-4
-5
-5
-4
-4
-3
-2
-2
-3
-3
-3
-3
-2
-3
-3
-3
-3
-4
-4
-4
-3
-3
-3
-2
-2
-3
-3
-3
-3
-4
-4
-3
-2
-1
0
1
0
0
2
4
4
5
6
7
7
6
5
4
3
2
1
0
0
-1
-1
-1
-2
-2
-3
-3
-4
-4
-5
-7
-8
-8
-7
-6
-7
-8
-7
-6
-6
-6
-5
-2
-1
-1
-4
-9
-14
-18
-16
-13
-8
-6
-12
-23
-37
-42
-36
-20
-3
12
16
10
2
-8
-21
-37
-53
-61
-63
-57
-48
-37
-26
-18
-11
-6
-3
-3
-3
-2
-1
-1
-1
0
2
2
0
0
0
0
0
1
2
2
1
0
0
0
0
0
0
0
0
1
1
1
1
2
3
3
4
5
6
6
8
9
9
6
5
4
5
6
5
5
4
3
4
6
7
5
6
7
8
8
9
9
7
7
6
5
4
3
3
4
5
6
6
6
6
6
8
10
9
10
12
15
17
18
18
19
19
19
19
18
17
16
17
19
19
16
15
15
14
13
8
5
2
3
4
4
3
0
-2
-4
-5
-5
-4
-1
-1
-1
-1
0
1
2
4
5
3
-1
-5
-10
-13
-13
-10
-4
-3
-9
-23
-37
-40
-31
-13
7
19
18
11
2
-8
-24
-43
-58
-66
-65
-58
-49
-39
-30
-21
-14
-10
-8
-7
-7
-6
-6
-5
-5
-4
-3
-2
-1
-2
-3
-4
-4
-4
-4
-3
-2
-3
-6
-6
-6
-7
-7
-7
-6
-7
-6
-5
-5
-5
-5
-4
-3
-2
-2
-2
-2
-3
-4
-4
-3
-3
-3
-4
-4
-4
-3
-1
-1
-1
0
0
0
-1
-1
-3
-2
-1
0
0
-1
-2
-3
-3
-2
-2
-3
-3
-3
-3
-4
-4
-4
-4
-3
-1
0
0
0
2
5
7
7
8
8
8
7
6
5
5
5
6
5
2
0
-2
-3
-4
-5
-4
-4
-4
-5
-6
-7
-9
-11
-15
-17
-17
-15
-14
-14
-14
-15
-15
-13
-11
-9
-8
-11
-17
-24
-30
-32
-30
-25
-21
-22
-32
-51
-66
-69
-61
-42
-19
-3
-1
-8
-18
-27
-41
-60
-77
-90
-92
-90
-82
-71
-61
-49
-38
-28
-22
-20
-18
-17
-16
-15
-14
-14
-13
-14
-14
-14
-14
-14
-13
-12
-12
-13
-14
-14
-14
-15
-15
-14
-13
-14
-14
-14
-14
-15
-13
-12
-12
-13
-13
-12
-13
-14
-14
-13
-13
-14
-14
-13
-12
-14
-13
-12
-11
-11
-11
-10
-10
-11
-12
-12
-13
-14
-14
-14
-13
-14
-14
-14
-14
-14
-15
-13
-13
-14
-15
-15
-16
-16
-15
-14
-12
-12
-12
-11
-10
-9
-8
-6
-4
-3
-2
0
-1
-1
-3
-3
-4
-4
-4
-4
-5
-7
-9
-10
-11
-12
-12
-11
-10
-10
-10
-10
-12
-16
-18
-20
-20
-20
-20
-20
-20
-20
-21
-20
-18
-16
-14
-13
-14
-18
-24
-31
-33
-32
-30
-27
-29
-38
-55
-67
-70
-62
-41
-17
0
4
-2
-11
-20
-33
-49
-66
-77
-80
-80
-74
-66
-56
-43
-32
-23
-17
-13
-11
-10
-10
-9
-8
-7
-7
-7
-7
-6
-5
-5
-5
-5
-6
-7
-7
-7
-5
-4
-4
-4
-5
-6
-6
-5
-5
-6
-6
-5
-5
-6
-6
-5
-6
-6
-7
-6
-5
-4
-3
-4
-6
-9
-9
-8
-6
-5
-4
-3
-3
-4
-4
-3
-3
-4
-4
-3
-2
-2
-1
-3
-4
-6
-6
-4
-4
-4
-4
-3
-2
-2
-2
-1
-1
-1
0
0
0
0
1
4
7
9
11
12
11
11
11
11
9
8
8
9
7
5
5
5
5
2
1
0
-1
-1
0
0
-1
-4
-5
-7
-8
-9
-8
-7
-7
-8
-8
-6
-4
-2
-1
0
-4
-9
-15
-19
-20
-19
-16
-13
-14
-23
-36
-46
-48
-40
-21
0
14
17
12
4
-6
-20
-37
-51
-60
-62
-60
-53
-44
-33
-22
-11
-6
-2
0
1
2
2
3
2
3
3
4
6
7
6
5
5
5
5
5
5
5
4
3
3
4
3
2
1
1
2
1
0
1
2
4
6
6
5
4
4
4
4
4
5
5
4
3
3
4
4
5
6
6
7
7
8
9
8
8
7
8
8
8
8
8
9
8
8
8
7
7
8
10
10
10
9
10
9
9
10
11
12
11
13
13
15
16
19
22
22
22
22
23
22
20
19
19
20
19
19
17
16
15
15
15
14
13
13
14
13
14
13
11
9
7
7
8
8
7
9
9
10
11
13
16
16
15
12
8
2
-1
0
2
7
9
5
-6
-19
-26
-21
-6
12
28
34
30
20
8
-4
-19
-34
-43
-45
-41
-35
-26
-15
-4
1
7
11
13
13
14
17
16
17
18
19
17
16
16
16
17
16
17
17
16
14
13
13
14
13
13
13
13
13
13
13
13
12
13
14
15
14
14
14
15
14
13
15
15
16
16
17
16
16
17
18
20
19
19
20
20
19
19
20
20
19
19
19
19
19
20
19
19
19
19
20
20
19
21
22
20
19
18
19
19
18
19
18
19
18
20
23
26
29
30
32
31
29
27
28
28
28
28
27
28
26
25
24
23
21
20
20
21
20
20
21
20
18
16
15
14
12
12
13
13
12
12
12
13
15
18
21
20
17
12
7
1
0
4
9
13
12
2
-12
-24
-26
-17
1
18
30
30
23
14
2
-13
-29
-44
-50
-51
-45
-38
-29
-19
-9
-2
2
6
9
11
10
10
11
12
12
13
13
13
12
11
11
10
9
10
10
10
9
8
7
6
6
6
6
6
6
6
7
7
6
5
6
6
7
7
7
7
4
4
4
4
4
5
6
7
8
9
10
9
8
7
8
9
8
8
6
5
3
3
3
2
3
3
3
3
3
2
3
3
1
1
2
3
3
4
5
3
2
2
2
2
3
6
9
10
11
12
11
10
10
11
12
11
10
8
8
6
5
3
4
3
2
1
1
1
0
0
-1
-3
-6
-8
-8
-8
-7
-8
-8
-8
-7
-6
-3
0
0
1
0
-4
-10
-17
-19
-19
-16
-13
-12
-19
-36
-52
-59
-54
-37
-14
2
7
1
-8
-16
-28
-45
-61
-74
-77
-78
-73
-65
-56
-43
-32
-22
-17
-13
-11
-9
-8
-8
-7
-5
-5
-7
-7
-7
-7
-7
-7
-6
-5
-6
-7
-7
-8
-8
-8
-7
-8
-9
-10
-10
-11
-12
-12
-12
-11
-12
-11
-10
-10
-11
-10
-10
-11
-13
-14
-14
-13
-13
-12
-12
-12
-10
-10
-10
-11
-10
-10
-9
-10
-11
-12
-12
-11
-11
-11
-10
-11
-13
-14
-14
-13
-13
-12
-11
-12
-12
-12
-13
-13
-12
-11
-9
-8
-7
-6
-4
-3
-3
-2
-2
-2
-3
-2
-1
-2
-3
-3
-3
-3
-5
-5
-6
-7
-8
-8
-8
-10
-11
-12
-11
-12
-15
-17
-18
-20
-22
-22
-22
-21
-20
-20
-18
-16
-15
-13
-11
-13
-17
-23
-29
-34
-35
-33
-29
-28
-34
-47
-59
-67
-62
-46
-26
-8
0
-1
-8
-17
-30
-44
-59
-70
-75
-76
-72
-68
-58
-46
-36
-27
-21
-16
-13
-12
-11
-9
-8
-8
-8
-6
-5
-6
-6
-6
-6
-5
-5
-5
-5
-6
-6
-6
-6
-5
-6
-6
-5
-5
-4
-3
-3
-5
-6
-6
-5
-5
-5
-4
-5
-5
-6
-6
-7
-7
-6
-4
-3
-5
-5
-4
-3
-2
-2
-1
-3
-5
-6
-5
-5
-4
-4
-3
-3
-5
-5
-5
-5
-5
-4
-3
-3
-2
-2
-2
-3
-3
-3
-2
0
0
2
2
3
3
4
7
9
10
10
9
8
8
6
7
6
6
6
6
6
2
2
2
3
3
3
4
2
0
-1
-3
-4
-5
-6
-7
-8
-8
-8
-8
-8
-7
-6
-2
0
1
0
-2
-7
-13
-17
-20
-19
-15
-12
-13
-22
-35
-46
-45
-34
-15
6
20
22
16
6
-4
-18
-34
-48
-56
-59
-55
-49
-39
-28
-17
-9
-3
0
1
2
3
4
4
5
6
6
5
5
5
6
6
5
5
5
5
5
6
6
6
6
5
6
5
5
5
6
6
5
5
6
7
7
6
6
5
6
6
7
6
6
6
7
7
7
9
10
10
10
11
11
10
10
11
12
10
10
9
10
10
10
10
10
10
11
12
12
11
11
11
12
11
11
10
12
12
13
15
15
16
15
17
19
22
24
25
25
25
25
23
23
22
21
21
22
20
17
17
16
16
15
15
15
14
14
13
13
10
7
5
3
3
3
4
4
3
3
5
7
9
12
14
12
6
0
-5
-7
-6
-2
1
2
-5
-20
-32
-36
-28
-9
13
30
34
28
18
6
-9
-26
-41
-49
-51
-48
-41
-31
-20
-9
0
6
8
9
9
9
9
9
11
11
11
11
12
11
10
9
10
10
8
9
9
10
9
9
9
8
7
7
8
7
7
8
8
8
7
8
9
9
8
9
10
11
11
12
13
13
12
11
11
12
13
15
15
16
15
14
14
15
14
14
14
14
14
14
14
13
13
14
15
16
15
14
14
13
13
13
15
14
15
15
15
14
14
17
19
22
24
26
26
25
24
25
25
24
24
25
26
25
22
19
17
17
16
16
16
16
16
15
15
12
9
7
6
5
5
5
6
6
5
5
5
6
8
11
12
10
4
-1
-6
-10
-8
-2
3
4
-4
-19
-33
-37
-29
-10
11
22
23
17
9
-1
-18
-35
-50
-58
-58
-51
-43
-34
-24
-14
-7
-3
0
1
4
4
5
6
8
9
7
5
3
3
4
6
6
4
3
2
3
2
2
3
4
5
4
4
2
1
1
3
4
3
1
1
2
3
3
3
2
1
0
2
4
5
5
7
6
5
4
5
7
8
7
5
4
3
4
4
4
3
3
3
2
1
0
1
1
0
1
1
0
0
0
0
0
1
1
2
2
3
4
6
9
10
12
13
12
9
8
8
10
11
11
11
10
8
6
7
7
5
2
0
0
-1
0
0
0
-1
-3
-5
-6
-7
-6
-3
-3
-5
-6
-6
-5
-4
0
2
0
-4
-9
-15
-19
-19
-18
-14
-13
-19
-31
-45
-52
-47
-32
